Pct	FAxFem(N)	FAP(N)	FDV(N)	HipTorqAP(Nm)	HipTorqDV(Nm)	FemTorsion(Nm)	TKFlex(Nm)	FAxTib(N)	FMLTib(N)	TAnkFlex(Nm)	TibTorsion(Nm)	Rhip(m)	Rknee(m)	Rankle(m)	Fem-GRFang(deg)	Tib-GRFang(deg)	
0.000000e+00	-5.608006e-02	1.362250e-01	-2.335446e-01	3.198869e-03	5.380274e-03	2.523344e-04	-2.849846e-03	-2.118895e-01	-1.130968e-01	-6.735492e-04	-1.120985e-03	1.948488e-02	-1.032083e-02	-2.439286e-03	1.017181e+02	1.401181e+02	
1.000000e+00	-5.830521e-02	1.410927e-01	-2.334799e-01	3.302647e-03	5.345668e-03	2.892867e-04	-2.821174e-03	-2.133721e-01	-1.112867e-01	-6.953831e-04	-1.137662e-03	1.916275e-02	-1.011313e-02	-2.492757e-03	1.020643e+02	1.398964e+02	
2.000000e+00	-5.928861e-02	1.403247e-01	-2.366845e-01	3.265873e-03	5.395462e-03	2.675889e-04	-2.825878e-03	-2.171071e-01	-1.113516e-01	-6.754475e-04	-1.134399e-03	1.916883e-02	-1.003969e-02	-2.399709e-03	1.021598e+02	1.404736e+02	
3.000000e+00	-5.901379e-02	1.348854e-01	-2.422120e-01	3.113717e-03	5.503683e-03	2.001801e-04	-2.850386e-03	-2.224182e-01	-1.126030e-01	-6.231263e-04	-1.113165e-03	1.941683e-02	-1.005608e-02	-2.198372e-03	1.020169e+02	1.416916e+02	
4.000000e+00	-5.760704e-02	1.260506e-01	-2.488700e-01	2.878741e-03	5.637105e-03	1.019325e-04	-2.876441e-03	-2.286158e-01	-1.139721e-01	-5.504316e-04	-1.076998e-03	1.978924e-02	-1.009784e-02	-1.932308e-03	1.016675e+02	1.433756e+02	
5.000000e+00	-5.540292e-02	1.156860e-01	-2.553432e-01	2.607981e-03	5.759758e-03	-7.094520e-06	-2.886829e-03	-2.349469e-01	-1.143223e-01	-4.728140e-04	-1.031162e-03	2.015665e-02	-1.010265e-02	-1.654644e-03	1.011797e+02	1.453069e+02	
6.000000e+00	-5.288977e-02	1.058697e-01	-2.607184e-01	2.352659e-03	5.846574e-03	-1.057535e-04	-2.873563e-03	-2.408388e-01	-1.129959e-01	-4.048932e-04	-9.825847e-04	2.041964e-02	-1.003615e-02	-1.414123e-03	1.006450e+02	1.472617e+02	
7.000000e+00	-5.058490e-02	9.839425e-02	-2.646815e-01	2.155093e-03	5.887605e-03	-1.758086e-04	-2.838553e-03	-2.460243e-01	-1.099417e-01	-3.569277e-04	-9.384855e-04	2.052333e-02	-9.894781e-03	-1.244198e-03	1.001562e+02	1.490488e+02	
8.000000e+00	-4.872720e-02	9.329626e-02	-2.676844e-01	2.012896e-03	5.889983e-03	-2.194358e-04	-2.786173e-03	-2.508131e-01	-1.054612e-01	-3.261907e-04	-8.997264e-04	2.047733e-02	-9.686512e-03	-1.134047e-03	9.975337e+01	1.506903e+02	
9.000000e+00	-4.725621e-02	8.938994e-02	-2.704552e-01	1.894270e-03	5.865769e-03	-2.544781e-04	-2.715916e-03	-2.558075e-01	-9.970784e-02	-3.025348e-04	-8.615927e-04	2.031519e-02	-9.406156e-03	-1.047783e-03	9.941970e+01	1.523687e+02	
1.000000e+01	-4.596373e-02	8.558401e-02	-2.734934e-01	1.771704e-03	5.821706e-03	-2.979647e-04	-2.623434e-03	-2.614148e-01	-9.259379e-02	-2.778904e-04	-8.185882e-04	2.005864e-02	-9.039022e-03	-9.574695e-04	9.911220e+01	1.542506e+02	
1.100000e+01	-4.491882e-02	8.166590e-02	-2.767960e-01	1.641140e-03	5.757170e-03	-3.540501e-04	-2.505005e-03	-2.675952e-01	-8.382433e-02	-2.500105e-04	-7.680058e-04	1.971183e-02	-8.576823e-03	-8.560046e-04	9.884703e+01	1.563785e+02	
1.200000e+01	-4.469615e-02	7.862022e-02	-2.799164e-01	1.527126e-03	5.669320e-03	-4.084361e-04	-2.364612e-03	-2.738228e-01	-7.329417e-02	-2.231051e-04	-7.134063e-04	1.927269e-02	-8.038431e-03	-7.584396e-04	9.873960e+01	1.585682e+02	
1.300000e+01	-4.583860e-02	7.730931e-02	-2.824513e-01	1.449055e-03	5.559196e-03	-4.470044e-04	-2.210718e-03	-2.794949e-01	-6.133939e-02	-2.001663e-04	-6.596900e-04	1.875533e-02	-7.458406e-03	-6.753109e-04	9.889641e+01	1.605523e+02	
1.400000e+01	-4.849512e-02	7.799547e-02	-2.841904e-01	1.411673e-03	5.431516e-03	-4.629311e-04	-2.052069e-03	-2.841759e-01	-4.857976e-02	-1.817098e-04	-6.103935e-04	1.818614e-02	-6.870864e-03	-6.084120e-04	9.934477e+01	1.620816e+02	
1.500000e+01	-5.178200e-02	7.981780e-02	-2.854041e-01	1.396150e-03	5.294227e-03	-4.655446e-04	-1.889678e-03	-2.878937e-01	-3.541271e-02	-1.656151e-04	-5.623460e-04	1.759786e-02	-6.281234e-03	-5.504998e-04	9.991125e+01	1.631270e+02	
1.600000e+01	-5.464531e-02	8.183448e-02	-2.864340e-01	1.383560e-03	5.154035e-03	-4.662646e-04	-1.721123e-03	-2.907676e-01	-2.201652e-02	-1.504005e-04	-5.105182e-04	1.701758e-02	-5.682800e-03	-4.965921e-04	1.003947e+02	1.637513e+02	
1.700000e+01	-5.621184e-02	8.342384e-02	-2.876086e-01	1.362267e-03	5.015559e-03	-4.735216e-04	-1.543762e-03	-2.929269e-01	-8.502818e-03	-1.361184e-04	-4.507910e-04	1.646101e-02	-5.066609e-03	-4.467391e-04	1.006312e+02	1.640253e+02	
1.800000e+01	-5.662725e-02	8.482737e-02	-2.888939e-01	1.335455e-03	4.871855e-03	-4.849570e-04	-1.359938e-03	-2.943530e-01	4.755116e-03	-1.236301e-04	-3.850664e-04	1.590192e-02	-4.438889e-03	-4.035332e-04	1.006515e+02	1.639001e+02	
1.900000e+01	-5.646070e-02	8.644540e-02	-2.901081e-01	1.307402e-03	4.711327e-03	-4.956493e-04	-1.173896e-03	-2.950440e-01	1.730736e-02	-1.125532e-04	-3.171057e-04	1.529980e-02	-3.812168e-03	-3.655108e-04	1.005652e+02	1.633636e+02	
2.000000e+01	-5.626550e-02	8.860002e-02	-2.911173e-01	1.279921e-03	4.524058e-03	-5.016313e-04	-9.903300e-04	-2.951111e-01	2.871433e-02	-1.014767e-04	-2.505949e-04	1.461924e-02	-3.200195e-03	-3.279163e-04	1.004758e+02	1.624844e+02	
2.100000e+01	-5.634567e-02	9.150152e-02	-2.918227e-01	1.255680e-03	4.311559e-03	-4.983215e-04	-8.134310e-04	-2.946748e-01	3.875666e-02	-8.994102e-05	-1.884128e-04	1.386448e-02	-2.615711e-03	-2.892191e-04	1.004390e+02	1.613648e+02	
2.200000e+01	-5.689662e-02	9.523402e-02	-2.920946e-01	1.237277e-03	4.082268e-03	-4.810278e-04	-6.471054e-04	-2.937847e-01	4.740283e-02	-7.798374e-05	-1.328063e-04	1.306528e-02	-2.071058e-03	-2.495866e-04	1.004920e+02	1.600948e+02	
2.300000e+01	-5.815814e-02	9.978450e-02	-2.917979e-01	1.225880e-03	3.844966e-03	-4.463492e-04	-4.959014e-04	-2.924742e-01	5.465549e-02	-6.518360e-05	-8.596458e-05	1.225199e-02	-1.580191e-03	-2.077077e-04	1.006799e+02	1.587440e+02	
2.400000e+01	-6.019511e-02	1.047193e-01	-2.909224e-01	1.216403e-03	3.609133e-03	-3.998132e-04	-3.597766e-04	-2.908293e-01	6.064317e-02	-4.888387e-05	-4.616201e-05	1.145754e-02	-1.142146e-03	-1.551866e-04	1.010167e+02	1.574083e+02	
2.500000e+01	-6.271017e-02	1.093392e-01	-2.896695e-01	1.201367e-03	3.386379e-03	-3.550399e-04	-2.326475e-04	-2.890339e-01	6.557741e-02	-2.524275e-05	-7.434811e-06	1.071961e-02	-7.364473e-04	-7.990612e-05	1.014498e+02	1.561971e+02	
2.600000e+01	-6.525538e-02	1.131339e-01	-2.882909e-01	1.178279e-03	3.188937e-03	-3.231871e-04	-1.074050e-04	-2.872508e-01	6.969114e-02	7.818074e-06	3.598303e-05	1.007578e-02	-3.393574e-04	2.470204e-05	1.018987e+02	1.551758e+02	
2.700000e+01	-6.753943e-02	1.159737e-01	-2.868665e-01	1.148886e-03	3.020355e-03	-3.065589e-04	2.224101e-05	-2.854256e-01	7.339046e-02	4.944199e-05	8.741812e-05	9.536724e-03	7.022565e-05	1.561123e-04	1.023132e+02	1.543199e+02	
2.800000e+01	-6.980053e-02	1.183887e-01	-2.851580e-01	1.118426e-03	2.866816e-03	-2.932696e-04	1.570156e-04	-2.832383e-01	7.722203e-02	9.541808e-05	1.445844e-04	9.056478e-03	4.960235e-04	3.014326e-04	1.027387e+02	1.534790e+02	
2.900000e+01	-7.240502e-02	1.209678e-01	-2.828878e-01	1.090308e-03	2.712303e-03	-2.716168e-04	2.950871e-04	-2.803783e-01	8.158437e-02	1.424974e-04	2.044512e-04	8.581296e-03	9.336086e-04	4.508391e-04	1.032428e+02	1.525077e+02	
3.000000e+01	-7.563894e-02	1.241111e-01	-2.798241e-01	1.064819e-03	2.543437e-03	-2.340962e-04	4.336521e-04	-2.766199e-01	8.662694e-02	1.892109e-04	2.646596e-04	8.066224e-03	1.375279e-03	6.000610e-04	1.038795e+02	1.513147e+02	
3.100000e+01	-7.922552e-02	1.276128e-01	-2.761893e-01	1.038154e-03	2.360682e-03	-1.833529e-04	5.717442e-04	-2.721491e-01	9.215244e-02	2.348501e-04	3.250569e-04	7.508726e-03	1.818572e-03	7.469980e-04	1.045957e+02	1.499555e+02	
3.200000e+01	-8.275000e-02	1.311000e-01	-2.723452e-01	1.005561e-03	2.167424e-03	-1.243457e-04	7.103200e-04	-2.672559e-01	9.794778e-02	2.784599e-04	3.861082e-04	6.916293e-03	2.266645e-03	8.885709e-04	1.053110e+02	1.485196e+02	
3.300000e+01	-8.581427e-02	1.343144e-01	-2.686182e-01	9.639559e-04	1.966515e-03	-6.054108e-05	8.507449e-04	-2.621881e-01	1.038134e-01	3.185959e-04	4.478097e-04	6.295947e-03	2.723724e-03	1.020009e-03	1.059466e+02	1.470784e+02	
3.400000e+01	-8.819267e-02	1.377868e-01	-2.649332e-01	9.211131e-04	1.762705e-03	1.310708e-05	9.890894e-04	-2.569117e-01	1.093797e-01	3.532305e-04	5.073024e-04	5.661085e-03	3.176548e-03	1.134431e-03	1.064536e+02	1.455982e+02	
3.500000e+01	-8.975652e-02	1.423412e-01	-2.609265e-01	8.884573e-04	1.562209e-03	1.053447e-04	1.117548e-03	-2.512005e-01	1.141805e-01	3.806621e-04	5.607820e-04	5.031539e-03	3.599383e-03	1.226031e-03	1.068033e+02	1.440045e+02	
3.600000e+01	-9.031815e-02	1.486530e-01	-2.561950e-01	8.753124e-04	1.372621e-03	2.237257e-04	1.226864e-03	-2.448248e-01	1.177032e-01	3.994439e-04	6.048412e-04	4.432634e-03	3.961938e-03	1.289933e-03	1.069578e+02	1.422433e+02	
3.700000e+01	-8.965035e-02	1.567027e-01	-2.505861e-01	8.813236e-04	1.198891e-03	3.678505e-04	1.313730e-03	-2.376500e-01	1.198043e-01	4.085039e-04	6.394226e-04	3.881833e-03	4.253663e-03	1.322675e-03	1.068744e+02	1.403069e+02	
3.800000e+01	-8.756771e-02	1.658652e-01	-2.442010e-01	8.973676e-04	1.041299e-03	5.301359e-04	1.382296e-03	-2.296024e-01	1.207682e-01	4.068320e-04	6.675270e-04	3.381741e-03	4.489170e-03	1.321235e-03	1.065222e+02	1.382159e+02	
3.900000e+01	-8.393595e-02	1.755228e-01	-2.372170e-01	9.139648e-04	8.992798e-04	7.024862e-04	1.437829e-03	-2.206718e-01	1.209177e-01	3.929449e-04	6.920144e-04	2.931173e-03	4.686556e-03	1.280791e-03	1.058778e+02	1.359945e+02	
4.000000e+01	-7.911324e-02	1.850939e-01	-2.296756e-01	9.253699e-04	7.732544e-04	8.773528e-04	1.480945e-03	-2.110249e-01	1.203258e-01	3.685203e-04	7.131492e-04	2.531934e-03	4.849188e-03	1.206678e-03	1.050136e+02	1.337076e+02	
4.100000e+01	-7.418665e-02	1.942807e-01	-2.212068e-01	9.442488e-04	6.745490e-04	1.049008e-03	1.493658e-03	-2.020490e-01	1.166719e-01	3.643885e-04	7.323916e-04	2.221736e-03	4.919605e-03	1.200172e-03	1.041432e+02	1.317193e+02	
4.200000e+01	-7.024221e-02	2.021349e-01	-2.122168e-01	9.635099e-04	5.903873e-04	1.212022e-03	1.489177e-03	-1.923159e-01	1.139497e-01	3.421373e-04	7.349012e-04	1.958962e-03	4.941234e-03	1.135245e-03	1.034779e+02	1.296520e+02	
4.300000e+01	-6.793022e-02	2.085560e-01	-2.026516e-01	1.002181e-03	5.302831e-04	1.361689e-03	1.454909e-03	-1.831863e-01	1.101135e-01	3.291360e-04	7.220353e-04	1.775740e-03	4.872003e-03	1.102166e-03	1.031485e+02	1.278379e+02	
4.400000e+01	-6.656845e-02	2.135044e-01	-1.928468e-01	1.061502e-03	4.932465e-04	1.493155e-03	1.395725e-03	-1.747451e-01	1.052872e-01	3.230482e-04	6.961145e-04	1.670292e-03	4.726375e-03	1.093946e-03	1.030277e+02	1.262809e+02	
4.500000e+01	-6.524065e-02	2.170701e-01	-1.831809e-01	1.138505e-03	4.794342e-04	1.601481e-03	1.316412e-03	-1.670823e-01	9.947415e-02	3.205615e-04	6.607674e-04	1.645113e-03	4.517088e-03	1.099963e-03	1.029362e+02	1.249821e+02	
4.600000e+01	-6.321806e-02	2.193840e-01	-1.739989e-01	1.227706e-03	4.887875e-04	1.682864e-03	1.221060e-03	-1.602710e-01	9.265726e-02	3.191785e-04	6.197045e-04	1.702757e-03	4.253727e-03	1.111901e-03	1.027225e+02	1.239401e+02	
4.700000e+01	-6.031184e-02	2.205952e-01	-1.655690e-01	1.322757e-03	5.177556e-04	1.737522e-03	1.114125e-03	-1.543456e-01	8.501808e-02	3.166059e-04	5.745976e-04	1.833837e-03	3.946116e-03	1.121385e-03	1.023345e+02	1.231393e+02	
4.800000e+01	-5.660587e-02	2.208655e-01	-1.580871e-01	1.416814e-03	5.609491e-04	1.768117e-03	1.000536e-03	-1.493034e-01	7.683906e-02	3.110824e-04	5.263981e-04	2.021818e-03	3.606213e-03	1.121228e-03	1.017724e+02	1.225566e+02	
4.900000e+01	-5.227027e-02	2.203897e-01	-1.516416e-01	1.503212e-03	6.123619e-04	1.779048e-03	8.851707e-04	-1.450775e-01	6.840957e-02	3.017884e-04	4.763051e-04	2.246554e-03	3.247399e-03	1.107162e-03	1.010557e+02	1.221571e+02	
5.000000e+01	-4.749081e-02	2.194261e-01	-1.462468e-01	1.579729e-03	6.683954e-04	1.776492e-03	7.720657e-04	-1.416060e-01	5.992706e-02	2.898305e-04	4.261300e-04	2.494581e-03	2.881498e-03	1.081703e-03	1.002094e+02	1.219043e+02	
5.100000e+01	-4.246110e-02	2.181766e-01	-1.418243e-01	1.655087e-03	7.323011e-04	1.765394e-03	6.590174e-04	-1.387815e-01	5.154397e-02	2.693341e-04	3.700759e-04	2.777415e-03	2.499470e-03	1.021509e-03	9.926748e+01	1.217599e+02	
5.200000e+01	-3.734592e-02	2.167801e-01	-1.382502e-01	1.712616e-03	7.900822e-04	1.753750e-03	5.605412e-04	-1.364710e-01	4.339945e-02	2.598433e-04	3.275545e-04	3.040995e-03	2.157501e-03	1.000127e-03	9.826453e+01	1.216866e+02	
5.300000e+01	-3.244174e-02	2.153160e-01	-1.354382e-01	1.760272e-03	8.445162e-04	1.743748e-03	4.736359e-04	-1.345950e-01	3.577959e-02	2.545464e-04	2.920864e-04	3.293344e-03	1.847029e-03	9.926496e-04	9.726814e+01	1.216600e+02	
5.400000e+01	-2.826078e-02	2.137728e-01	-1.332289e-01	1.795420e-03	8.894683e-04	1.735894e-03	4.018956e-04	-1.330280e-01	2.919173e-02	2.540026e-04	2.644959e-04	3.509155e-03	1.585570e-03	1.002098e-03	9.640155e+01	1.216566e+02	
5.500000e+01	-2.522550e-02	2.121440e-01	-1.313943e-01	1.815592e-03	9.187066e-04	1.730801e-03	3.480196e-04	-1.316114e-01	2.406733e-02	2.578897e-04	2.448482e-04	3.662952e-03	1.387580e-03	1.028226e-03	9.577237e+01	1.216511e+02	
5.600000e+01	-2.367622e-02	2.104253e-01	-1.296621e-01	1.819842e-03	9.268577e-04	1.728747e-03	3.132950e-04	-1.301728e-01	2.068503e-02	2.660951e-04	2.325162e-04	3.732852e-03	1.261773e-03	1.071678e-03	9.547174e+01	1.216186e+02	
5.700000e+01	-2.396878e-02	2.086151e-01	-1.276496e-01	1.810793e-03	9.092760e-04	1.729679e-03	2.974716e-04	-1.284623e-01	1.914015e-02	2.805553e-04	2.264531e-04	3.700123e-03	1.210503e-03	1.141666e-03	9.559735e+01	1.215171e+02	
5.800000e+01	-2.643798e-02	2.067114e-01	-1.250155e-01	1.792419e-03	8.623884e-04	1.732906e-03	3.001077e-04	-1.262851e-01	1.949156e-02	3.033223e-04	2.252834e-04	3.548670e-03	1.234923e-03	1.248151e-03	9.624563e+01	1.213091e+02	
5.900000e+01	-3.123679e-02	2.046515e-01	-1.214509e-01	1.767841e-03	7.839467e-04	1.737373e-03	3.207703e-04	-1.235009e-01	2.176161e-02	3.351177e-04	2.275977e-04	3.266210e-03	1.336447e-03	1.396223e-03	9.747794e+01	1.209674e+02	
6.000000e+01	-3.752002e-02	2.023081e-01	-1.169012e-01	1.734278e-03	6.785917e-04	1.744525e-03	3.565666e-04	-1.200793e-01	2.558557e-02	3.698590e-04	2.321333e-04	2.867517e-03	1.506739e-03	1.562909e-03	9.912266e+01	1.204920e+02	
6.100000e+01	-4.405097e-02	1.995944e-01	-1.116280e-01	1.686549e-03	5.554561e-04	1.757059e-03	4.030346e-04	-1.160983e-01	3.037242e-02	3.986845e-04	2.373862e-04	2.385025e-03	1.730556e-03	1.711877e-03	1.009030e+02	1.199012e+02	
6.200000e+01	-4.963733e-02	1.964578e-01	-1.060995e-01	1.618890e-03	4.252611e-04	1.777241e-03	4.552417e-04	-1.116430e-01	3.545151e-02	4.132778e-04	2.419795e-04	1.859241e-03	1.990316e-03	1.806850e-03	1.025338e+02	1.192160e+02	
6.300000e+01	-5.401489e-02	1.929042e-01	-1.005473e-01	1.537584e-03	2.977586e-04	1.798782e-03	5.076526e-04	-1.067944e-01	4.027797e-02	4.148365e-04	2.448710e-04	1.328440e-03	2.264876e-03	1.850780e-03	1.039448e+02	1.184545e+02	
6.400000e+01	-5.749821e-02	1.890019e-01	-9.485097e-02	1.458094e-03	1.808144e-04	1.810967e-03	5.538736e-04	-1.016214e-01	4.445045e-02	4.108269e-04	2.452851e-04	8.250908e-04	2.527431e-03	1.874682e-03	1.052111e+02	1.176273e+02	
6.500000e+01	-6.047885e-02	1.847977e-01	-8.859193e-02	1.397066e-03	7.927515e-05	1.804249e-03	5.876852e-04	-9.608139e-02	4.769263e-02	4.096644e-04	2.428798e-04	3.710106e-04	2.750388e-03	1.917244e-03	1.064420e+02	1.167222e+02	
6.600000e+01	-6.325711e-02	1.803286e-01	-8.132529e-02	1.364734e-03	-7.469966e-06	1.775838e-03	6.061638e-04	-9.010620e-02	4.996136e-02	4.163662e-04	2.370503e-04	-3.596752e-05	2.918649e-03	2.004783e-03	1.077329e+02	1.157126e+02	
6.700000e+01	-6.601360e-02	1.755800e-01	-7.272482e-02	1.362718e-03	-8.533688e-05	1.728233e-03	6.111831e-04	-8.364793e-02	5.147542e-02	4.316259e-04	2.270308e-04	-4.241731e-04	3.037930e-03	2.145428e-03	1.091551e+02	1.145684e+02	
6.800000e+01	-6.889157e-02	1.704699e-01	-6.244833e-02	1.390436e-03	-1.623505e-04	1.662123e-03	6.072583e-04	-7.666342e-02	5.261714e-02	4.549053e-04	2.124596e-04	-8.360828e-04	3.127298e-03	2.342701e-03	1.107801e+02	1.132539e+02	
6.900000e+01	-7.148407e-02	1.649535e-01	-5.062019e-02	1.439111e-03	-2.431620e-04	1.580191e-03	5.995009e-04	-6.922735e-02	5.366517e-02	4.805548e-04	1.938162e-04	-1.301952e-03	3.209881e-03	2.573014e-03	1.125038e+02	1.117564e+02	
7.000000e+01	-7.261676e-02	1.590878e-01	-3.840102e-02	1.487027e-03	-3.227982e-04	1.493548e-03	5.904667e-04	-6.155898e-02	5.439049e-02	4.972941e-04	1.733330e-04	-1.802899e-03	3.297886e-03	2.777497e-03	1.139276e+02	1.101098e+02	
7.100000e+01	-7.134522e-02	1.530860e-01	-2.738588e-02	1.516635e-03	-3.894542e-04	1.417816e-03	5.783490e-04	-5.394534e-02	5.412972e-02	4.976457e-04	1.532764e-04	-2.276170e-03	3.380168e-03	2.908496e-03	1.146440e+02	1.083780e+02	
7.200000e+01	-6.741491e-02	1.472720e-01	-1.899078e-02	1.520777e-03	-4.290386e-04	1.365664e-03	5.581315e-04	-4.675257e-02	5.214995e-02	4.808585e-04	1.352414e-04	-2.630878e-03	3.422481e-03	2.948640e-03	1.144180e+02	1.066598e+02	
7.300000e+01	-6.200722e-02	1.415558e-01	-1.306469e-02	1.503226e-03	-4.441219e-04	1.330606e-03	5.313221e-04	-4.027144e-02	4.892641e-02	4.544759e-04	1.205907e-04	-2.863598e-03	3.425845e-03	2.930358e-03	1.135663e+02	1.050500e+02	
7.400000e+01	-5.643059e-02	1.357198e-01	-8.916746e-03	1.466623e-03	-4.450324e-04	1.302081e-03	5.033502e-04	-3.468938e-02	4.539347e-02	4.247659e-04	1.101907e-04	-3.022206e-03	3.418241e-03	2.884576e-03	1.125333e+02	1.036255e+02	
7.500000e+01	-5.175556e-02	1.295690e-01	-5.789576e-03	1.412596e-03	-4.443182e-04	1.270360e-03	4.814138e-04	-3.008729e-02	4.250779e-02	3.956756e-04	1.042681e-04	-3.181806e-03	3.447452e-03	2.833472e-03	1.117543e+02	1.024424e+02	
7.600000e+01	-4.829296e-02	1.230864e-01	-3.024601e-03	1.350162e-03	-4.488262e-04	1.228505e-03	4.678719e-04	-2.631059e-02	4.060924e-02	3.685935e-04	1.009897e-04	-3.393619e-03	3.537625e-03	2.786971e-03	1.114167e+02	1.014748e+02	
7.700000e+01	-4.600261e-02	1.163386e-01	-1.125011e-04	1.291471e-03	-4.617118e-04	1.170808e-03	4.624134e-04	-2.316829e-02	3.974271e-02	3.435502e-04	9.758059e-05	-3.690634e-03	3.696243e-03	2.746125e-03	1.115749e+02	1.006724e+02	
7.800000e+01	-4.477634e-02	1.093533e-01	3.364886e-03	1.245179e-03	-4.858263e-04	1.092917e-03	4.647778e-04	-2.050789e-02	3.994583e-02	3.200732e-04	9.202650e-05	-4.109741e-03	3.931686e-03	2.707589e-03	1.122579e+02	9.999037e+01	
7.900000e+01	-4.418313e-02	1.022413e-01	7.290405e-03	1.208755e-03	-5.189022e-04	1.001308e-03	4.725628e-04	-1.821163e-02	4.091009e-02	2.962962e-04	8.394572e-05	-4.648910e-03	4.233750e-03	2.654555e-03	1.133186e+02	9.939041e+01	
8.000000e+01	-4.366446e-02	9.527206e-02	1.105161e-02	1.175778e-03	-5.531056e-04	9.092354e-04	4.810590e-04	-1.623557e-02	4.201344e-02	2.703884e-04	7.329640e-05	-5.248549e-03	4.564882e-03	2.565779e-03	1.144779e+02	9.886250e+01	
8.100000e+01	-4.285909e-02	8.870027e-02	1.402462e-02	1.142982e-03	-5.804834e-04	8.273423e-04	4.862362e-04	-1.455706e-02	4.268119e-02	2.422797e-04	6.030303e-05	-5.833686e-03	4.886529e-03	2.434839e-03	1.155134e+02	9.841226e+01	
8.200000e+01	-4.169220e-02	8.271592e-02	1.578347e-02	1.147891e-03	-5.898075e-04	7.355997e-04	4.804311e-04	-1.322528e-02	4.257287e-02	1.744816e-04	-9.801384e-08	-6.276935e-03	5.112914e-03	1.856893e-03	1.163404e+02	9.809116e+01	
8.300000e+01	-4.032126e-02	7.739640e-02	1.622607e-02	1.113292e-03	-5.894093e-04	6.833568e-04	4.739992e-04	-1.236734e-02	4.166699e-02	1.443702e-04	-1.578650e-05	-6.640081e-03	5.339910e-03	1.626424e-03	1.170164e+02	9.800889e+01	
8.400000e+01	-3.887571e-02	7.269132e-02	1.543571e-02	1.073281e-03	-5.705870e-04	6.407567e-04	4.589768e-04	-1.204212e-02	4.005707e-02	1.164435e-04	-3.138533e-05	-6.803506e-03	5.472699e-03	1.388436e-03	1.176160e+02	9.825548e+01	
8.500000e+01	-3.745206e-02	6.849269e-02	1.363374e-02	1.026343e-03	-5.354211e-04	6.055616e-04	4.364341e-04	-1.222831e-02	3.793421e-02	9.108572e-05	-4.590077e-05	-6.756520e-03	5.507396e-03	1.149418e-03	1.182039e+02	9.887681e+01	
8.600000e+01	-3.617097e-02	6.459590e-02	1.120762e-02	9.729453e-04	-4.910146e-04	5.754097e-04	4.100774e-04	-1.279705e-02	3.563966e-02	6.799644e-05	-5.862240e-05	-6.557607e-03	5.476673e-03	9.081073e-04	1.188862e+02	9.984062e+01	
