Pct	FAxFem(N)	FAP(N)	FDV(N)	HipTorqAP(Nm)	HipTorqDV(Nm)	FemTorsion(Nm)	TKFlex(Nm)	FAxTib(N)	FMLTib(N)	TAnkFlex(Nm)	TibTorsion(Nm)	Rhip(m)	Rknee(m)	Rankle(m)	Fem-GRFang(deg)	Tib-GRFang(deg)	
0.000000e+00	1.493141e-02	-1.062553e-02	-5.027652e-02	-2.631912e-04	1.406602e-03	-1.147622e-04	-1.011111e-03	-2.048529e-02	-4.828072e-02	8.916204e-05	2.580898e-05	2.628553e-02	-1.889488e-02	1.666194e-03	7.379788e+01	1.125081e+02	
1.000000e+00	2.009016e-02	-1.459839e-02	-5.469378e-02	-3.519881e-04	1.546042e-03	-1.651639e-04	-1.111907e-03	-2.316715e-02	-5.346314e-02	1.209598e-04	4.321003e-05	2.573830e-02	-1.851088e-02	2.013723e-03	7.046043e+01	1.126862e+02	
2.000000e+00	2.498369e-02	-1.863605e-02	-5.967124e-02	-4.392482e-04	1.699948e-03	-2.189363e-04	-1.220789e-03	-2.675045e-02	-5.890038e-02	1.530913e-04	6.338741e-05	2.525131e-02	-1.813380e-02	2.274043e-03	6.821583e+01	1.134130e+02	
3.000000e+00	2.966844e-02	-2.266439e-02	-6.526414e-02	-5.240239e-04	1.867874e-03	-2.741721e-04	-1.337014e-03	-3.122344e-02	-6.453465e-02	1.850752e-04	8.594854e-05	2.484258e-02	-1.778218e-02	2.461485e-03	6.675975e+01	1.145363e+02	
4.000000e+00	3.417414e-02	-2.655606e-02	-7.149488e-02	-6.038546e-04	2.049023e-03	-3.289462e-04	-1.459683e-03	-3.659667e-02	-7.028566e-02	2.158134e-04	1.099260e-04	2.451746e-02	-1.746575e-02	2.582303e-03	6.586372e+01	1.159697e+02	
5.000000e+00	3.850638e-02	-3.016617e-02	-7.834867e-02	-6.756057e-04	2.241910e-03	-3.816780e-04	-1.587448e-03	-4.290348e-02	-7.602991e-02	2.439148e-04	1.339863e-04	2.427235e-02	-1.718673e-02	2.640777e-03	6.536133e+01	1.176779e+02	
6.000000e+00	4.271570e-02	-3.329497e-02	-8.579992e-02	-7.345203e-04	2.445499e-03	-4.307785e-04	-1.719433e-03	-5.019219e-02	-8.165171e-02	2.673221e-04	1.561772e-04	2.410228e-02	-1.694634e-02	2.634667e-03	6.510252e+01	1.196489e+02	
7.000000e+00	4.689055e-02	-3.571405e-02	-9.379012e-02	-7.750095e-04	2.658342e-03	-4.745504e-04	-1.854670e-03	-5.849364e-02	-8.702761e-02	2.836398e-04	1.741522e-04	2.399796e-02	-1.674287e-02	2.560535e-03	6.495688e+01	1.218736e+02	
8.000000e+00	5.114478e-02	-3.723209e-02	-1.021887e-01	-7.923398e-04	2.877362e-03	-5.115284e-04	-1.991303e-03	-6.778111e-02	-9.200026e-02	2.908108e-04	1.857379e-04	2.394101e-02	-1.656858e-02	2.419683e-03	6.481463e+01	1.243309e+02	
9.000000e+00	5.545664e-02	-3.776282e-02	-1.108352e-01	-7.847529e-04	3.096758e-03	-5.403144e-04	-2.125679e-03	-7.793408e-02	-9.636477e-02	2.879653e-04	1.894969e-04	2.390202e-02	-1.640685e-02	2.222632e-03	6.465700e+01	1.269794e+02	
1.000000e+01	5.966494e-02	-3.732621e-02	-1.195759e-01	-7.534382e-04	3.308856e-03	-5.600266e-04	-2.252963e-03	-8.876045e-02	-9.989943e-02	2.753815e-04	1.848277e-04	2.384761e-02	-1.623758e-02	1.984732e-03	6.453134e+01	1.297706e+02	
1.100000e+01	6.360113e-02	-3.602546e-02	-1.282471e-01	-7.015233e-04	3.505467e-03	-5.710229e-04	-2.368328e-03	-1.000185e-01	-1.024145e-01	2.540514e-04	1.718875e-04	2.374732e-02	-1.604392e-02	1.721038e-03	6.447804e+01	1.326535e+02	
1.200000e+01	6.714396e-02	-3.399925e-02	-1.367174e-01	-6.329422e-04	3.680037e-03	-5.746499e-04	-2.468315e-03	-1.114542e-01	-1.038168e-01	2.251690e-04	1.512298e-04	2.358034e-02	-1.581606e-02	1.442801e-03	6.451761e+01	1.355743e+02	
1.300000e+01	7.025296e-02	-3.133765e-02	-1.448891e-01	-5.510135e-04	3.830254e-03	-5.721514e-04	-2.551519e-03	-1.228305e-01	-1.041200e-01	1.894471e-04	1.233177e-04	2.334897e-02	-1.555389e-02	1.154857e-03	6.464301e+01	1.384837e+02	
1.400000e+01	7.288240e-02	-2.815549e-02	-1.526661e-01	-4.596029e-04	3.955434e-03	-5.653137e-04	-2.617070e-03	-1.339155e-01	-1.033703e-01	1.478758e-04	8.907691e-05	2.306404e-02	-1.526008e-02	8.622604e-04	6.485091e+01	1.413393e+02	
1.500000e+01	7.496450e-02	-2.457632e-02	-1.599612e-01	-3.624756e-04	4.055755e-03	-5.561766e-04	-2.664407e-03	-1.444884e-01	-1.016384e-01	1.016195e-04	4.972958e-05	2.273952e-02	-1.493861e-02	5.697533e-04	6.514614e+01	1.441065e+02	
1.600000e+01	7.646607e-02	-2.071333e-02	-1.666984e-01	-2.627328e-04	4.132533e-03	-5.466659e-04	-2.693741e-03	-1.543545e-01	-9.904596e-02	5.182796e-05	6.611015e-06	2.239059e-02	-1.459503e-02	2.808105e-04	6.552460e+01	1.467528e+02	
1.700000e+01	7.741757e-02	-1.672605e-02	-1.727765e-01	-1.637861e-04	4.187077e-03	-5.390881e-04	-2.705549e-03	-1.633373e-01	-9.573986e-02	1.031633e-07	-3.835714e-05	2.202964e-02	-1.423481e-02	5.427774e-07	6.596342e+01	1.492463e+02	
1.800000e+01	7.787331e-02	-1.277591e-02	-1.781098e-01	-6.868533e-05	4.221401e-03	-5.354685e-04	-2.700681e-03	-1.713051e-01	-9.187993e-02	-5.185725e-05	-8.312773e-05	2.166942e-02	-1.386322e-02	-2.661952e-04	6.643800e+01	1.515639e+02	
1.900000e+01	7.792721e-02	-8.981836e-03	-1.826481e-01	2.064376e-05	4.238579e-03	-5.369211e-04	-2.680633e-03	-1.781897e-01	-8.764352e-02	-1.027057e-04	-1.260103e-04	2.132292e-02	-1.348540e-02	-5.166791e-04	6.691936e+01	1.536908e+02	
2.000000e+01	7.772625e-02	-5.371683e-03	-1.863392e-01	1.041815e-04	4.240144e-03	-5.427999e-04	-2.646519e-03	-1.839764e-01	-8.316455e-02	-1.519106e-04	-1.659961e-04	2.099377e-02	-1.310342e-02	-7.521387e-04	6.736637e+01	1.556304e+02	
2.100000e+01	7.744658e-02	-1.870525e-03	-1.891237e-01	1.836889e-04	4.225467e-03	-5.506215e-04	-2.598809e-03	-1.886816e-01	-7.851736e-02	-1.998983e-04	-2.028952e-04	2.067505e-02	-1.271587e-02	-9.780948e-04	6.773179e+01	1.574003e+02	
2.200000e+01	7.725252e-02	1.636281e-03	-1.909712e-01	2.613567e-04	4.193962e-03	-5.572519e-04	-2.538137e-03	-1.923473e-01	-7.375972e-02	-2.475118e-04	-2.369737e-04	2.035792e-02	-1.232038e-02	-1.201448e-03	6.797622e+01	1.590149e+02	
2.300000e+01	7.726041e-02	5.214863e-03	-1.918828e-01	3.382682e-04	4.145177e-03	-5.603299e-04	-2.465401e-03	-1.950242e-01	-6.894739e-02	-2.952088e-04	-2.682791e-04	2.003287e-02	-1.191482e-02	-1.426690e-03	6.807548e+01	1.604785e+02	
2.400000e+01	7.744204e-02	8.627011e-03	-1.919353e-01	4.104453e-04	4.080004e-03	-5.627524e-04	-2.383217e-03	-1.967418e-01	-6.425777e-02	-3.409986e-04	-2.952766e-04	1.969596e-02	-1.150483e-02	-1.646149e-03	6.804699e+01	1.617609e+02	
2.500000e+01	7.768356e-02	1.151711e-02	-1.912932e-01	4.723192e-04	4.000466e-03	-5.699741e-04	-2.294853e-03	-1.975873e-01	-5.989217e-02	-3.819981e-04	-3.160419e-04	1.934592e-02	-1.109772e-02	-1.847311e-03	6.793422e+01	1.628461e+02	
2.600000e+01	7.783365e-02	1.352450e-02	-1.901666e-01	5.186184e-04	3.908616e-03	-5.879437e-04	-2.202868e-03	-1.977053e-01	-5.598229e-02	-4.153147e-04	-3.287571e-04	1.898095e-02	-1.069753e-02	-2.016844e-03	6.779176e+01	1.637589e+02	
2.700000e+01	7.769151e-02	1.438228e-02	-1.887768e-01	5.455977e-04	3.806237e-03	-6.210954e-04	-2.107889e-03	-1.972763e-01	-5.248546e-02	-4.385365e-04	-3.319123e-04	1.859923e-02	-1.030023e-02	-2.142915e-03	6.768859e+01	1.645781e+02	
2.800000e+01	7.705596e-02	1.418301e-02	-1.873292e-01	5.544077e-04	3.696076e-03	-6.675050e-04	-2.007829e-03	-1.965292e-01	-4.905225e-02	-4.513235e-04	-3.251932e-04	1.820241e-02	-9.888146e-03	-2.222675e-03	6.769826e+01	1.654357e+02	
2.900000e+01	7.574545e-02	1.314776e-02	-1.860052e-01	5.475889e-04	3.580802e-03	-7.231440e-04	-1.900238e-03	-1.956702e-01	-4.526009e-02	-4.540193e-04	-3.085757e-04	1.779135e-02	-9.441407e-03	-2.255812e-03	6.789261e+01	1.664572e+02	
3.000000e+01	7.360804e-02	1.152916e-02	-1.849248e-01	5.276710e-04	3.462312e-03	-7.833638e-04	-1.782822e-03	-1.948323e-01	-4.069020e-02	-4.470636e-04	-2.818611e-04	1.736630e-02	-8.942295e-03	-2.242386e-03	6.833349e+01	1.677529e+02	
3.100000e+01	7.059244e-02	9.634397e-03	-1.841518e-01	4.980498e-04	3.341568e-03	-8.431889e-04	-1.654785e-03	-1.940740e-01	-3.507773e-02	-4.317051e-04	-2.456742e-04	1.692329e-02	-8.380620e-03	-2.186360e-03	6.905244e+01	1.693839e+02	
3.200000e+01	6.673347e-02	7.774504e-03	-1.837065e-01	4.625393e-04	3.218187e-03	-8.983750e-04	-1.516864e-03	-1.933831e-01	-2.836237e-02	-4.097725e-04	-2.015780e-04	1.645236e-02	-7.754672e-03	-2.094882e-03	7.005234e+01	1.713531e+02	
3.300000e+01	6.206859e-02	6.193392e-03	-1.835718e-01	4.240808e-04	3.091128e-03	-9.458038e-04	-1.369839e-03	-1.926896e-01	-2.053854e-02	-3.827020e-04	-1.509227e-04	1.594351e-02	-7.065392e-03	-1.973911e-03	7.132869e+01	1.736475e+02	
3.400000e+01	5.666322e-02	5.091834e-03	-1.837184e-01	3.852775e-04	2.959549e-03	-9.832305e-04	-1.214937e-03	-1.919031e-01	-1.167700e-02	-3.518924e-04	-9.521361e-05	1.538823e-02	-6.317090e-03	-1.829671e-03	7.286518e+01	1.762022e+02	
3.500000e+01	5.055127e-02	4.566024e-03	-1.841301e-01	3.473909e-04	2.823991e-03	-1.010276e-03	-1.054258e-03	-1.909336e-01	-1.927377e-03	-3.181179e-04	-3.585408e-05	1.478546e-02	-5.519740e-03	-1.665557e-03	7.465272e+01	1.785131e+02	
3.600000e+01	4.372025e-02	4.631758e-03	-1.847754e-01	3.104649e-04	2.685441e-03	-1.027623e-03	-8.900665e-04	-1.896854e-01	8.534916e-03	-2.815217e-04	2.600780e-05	1.413883e-02	-4.686193e-03	-1.482209e-03	7.669196e+01	1.770694e+02	
3.700000e+01	3.618230e-02	5.319863e-03	-1.855919e-01	2.748447e-04	2.544949e-03	-1.035594e-03	-7.248114e-04	-1.880784e-01	1.949469e-02	-2.425186e-04	8.890571e-05	1.345389e-02	-3.831721e-03	-1.282076e-03	7.897265e+01	1.738676e+02	
3.800000e+01	2.799947e-02	6.670787e-03	-1.864771e-01	2.412823e-04	2.403471e-03	-1.034326e-03	-5.611612e-04	-1.860568e-01	3.066825e-02	-2.019078e-04	1.510039e-04	1.273798e-02	-2.974057e-03	-1.070076e-03	8.146626e+01	1.704251e+02	
3.900000e+01	1.929499e-02	8.709217e-03	-1.872778e-01	2.107072e-04	2.260886e-03	-1.024630e-03	-4.013160e-04	-1.836001e-01	4.166836e-02	-1.607307e-04	2.102941e-04	1.199597e-02	-2.129331e-03	-8.528161e-04	8.412398e+01	1.669463e+02	
4.000000e+01	1.022412e-02	1.146722e-02	-1.878219e-01	1.840805e-04	2.117061e-03	-1.007183e-03	-2.476129e-04	-1.807495e-01	5.206920e-02	-1.198825e-04	2.649399e-04	1.123412e-02	-1.313951e-03	-6.361528e-04	8.688998e+01	1.635652e+02	
4.100000e+01	9.661086e-04	1.498471e-02	-1.879405e-01	1.623147e-04	1.972440e-03	-9.823701e-04	-1.027649e-04	-1.776167e-01	6.144002e-02	-7.989847e-05	3.134191e-04	1.046169e-02	-5.450576e-04	-4.237759e-04	8.970644e+01	1.604016e+02	
4.200000e+01	-8.278551e-03	1.926490e-02	-1.874603e-01	1.460116e-04	1.829050e-03	-9.500559e-04	2.992097e-05	-1.743323e-01	6.941272e-02	-4.076540e-05	3.546905e-04	9.696528e-03	1.586231e-04	-2.161138e-04	9.251543e+01	1.575490e+02	
4.300000e+01	-1.724005e-02	2.427608e-02	-1.862292e-01	1.363559e-04	1.691833e-03	-9.093719e-04	1.460138e-04	-1.710158e-01	7.571082e-02	-2.674761e-06	3.877425e-04	8.970747e-03	7.742210e-04	-1.418261e-05	9.524496e+01	1.550657e+02	
4.400000e+01	-2.562029e-02	2.992417e-02	-1.841701e-01	1.348396e-04	1.566544e-03	-8.604159e-04	2.410626e-04	-1.678043e-01	8.010452e-02	3.413892e-05	4.115716e-04	8.317810e-03	1.279959e-03	1.812659e-04	9.781851e+01	1.529971e+02	
4.500000e+01	-3.315387e-02	3.601595e-02	-1.812813e-01	1.426088e-04	1.458611e-03	-8.047615e-04	3.114485e-04	-1.648140e-01	8.245266e-02	6.971406e-05	4.254477e-04	7.767890e-03	1.658631e-03	3.712650e-04	1.001696e+02	1.513690e+02	
4.600000e+01	-3.961784e-02	4.222718e-02	-1.776539e-01	1.596607e-04	1.371134e-03	-7.454918e-04	3.567668e-04	-1.620719e-01	8.284442e-02	1.041525e-04	4.297403e-04	7.338078e-03	1.909356e-03	5.574069e-04	1.022413e+02	1.501558e+02	
4.700000e+01	-4.482334e-02	4.821377e-02	-1.735075e-01	1.854113e-04	1.305454e-03	-6.864865e-04	3.794172e-04	-1.595676e-01	8.156080e-02	1.368085e-04	4.255942e-04	7.034596e-03	2.044535e-03	7.372093e-04	1.039773e+02	1.492997e+02	
4.800000e+01	-4.866285e-02	5.384228e-02	-1.690867e-01	2.221288e-04	1.268370e-03	-6.315478e-04	3.760305e-04	-1.580211e-01	7.738023e-02	1.719849e-04	4.069271e-04	6.893177e-03	2.043602e-03	9.346817e-04	1.053353e+02	1.491814e+02	
4.900000e+01	-5.112486e-02	5.859289e-02	-1.647831e-01	2.618931e-04	1.246458e-03	-5.844126e-04	3.641782e-04	-1.559161e-01	7.387421e-02	1.971705e-04	3.901953e-04	6.840790e-03	1.998677e-03	1.082108e-03	1.062950e+02	1.488368e+02	
5.000000e+01	-5.232892e-02	6.267914e-02	-1.607524e-01	3.066801e-04	1.242458e-03	-5.460964e-04	3.414408e-04	-1.539786e-01	6.978715e-02	2.162431e-04	3.693906e-04	6.891035e-03	1.893730e-03	1.199347e-03	1.068719e+02	1.486506e+02	
5.100000e+01	-5.247267e-02	6.618166e-02	-1.571198e-01	3.546255e-04	1.251728e-03	-5.168923e-04	3.122337e-04	-1.521776e-01	6.543688e-02	2.290118e-04	3.463312e-04	7.017132e-03	1.750369e-03	1.283831e-03	1.071072e+02	1.485506e+02	
5.200000e+01	-5.177622e-02	6.917680e-02	-1.539222e-01	4.035587e-04	1.269397e-03	-4.962929e-04	2.806593e-04	-1.504537e-01	6.112705e-02	2.357979e-04	3.229906e-04	7.191357e-03	1.589984e-03	1.335837e-03	1.070569e+02	1.484679e+02	
5.300000e+01	-5.044933e-02	7.176153e-02	-1.511430e-01	4.520943e-04	1.291780e-03	-4.830428e-04	2.492440e-04	-1.487903e-01	5.701567e-02	2.373780e-04	3.004439e-04	7.391976e-03	1.426254e-03	1.358353e-03	1.067794e+02	1.483672e+02	
5.400000e+01	-4.872670e-02	7.400385e-02	-1.487187e-01	4.997318e-04	1.317412e-03	-4.755938e-04	2.176695e-04	-1.472568e-01	5.298097e-02	2.356416e-04	2.776998e-04	7.610128e-03	1.257384e-03	1.361201e-03	1.063482e+02	1.482814e+02	
5.500000e+01	-4.683098e-02	7.594525e-02	-1.465502e-01	5.460267e-04	1.344938e-03	-4.723656e-04	1.851984e-04	-1.458878e-01	4.885549e-02	2.328606e-04	2.534369e-04	7.838803e-03	1.079405e-03	1.357199e-03	1.058398e+02	1.482431e+02	
5.600000e+01	-4.493561e-02	7.763994e-02	-1.445519e-01	5.910169e-04	1.373418e-03	-4.717737e-04	1.508872e-04	-1.447030e-01	4.444680e-02	2.312015e-04	2.261032e-04	8.073003e-03	8.869213e-04	1.359012e-03	1.053155e+02	1.482737e+02	
5.700000e+01	-4.319296e-02	7.909226e-02	-1.426714e-01	6.340981e-04	1.402010e-03	-4.727736e-04	1.144268e-04	-1.436730e-01	3.973430e-02	2.320118e-04	1.950845e-04	8.308239e-03	6.780876e-04	1.374890e-03	1.048305e+02	1.483642e+02	
5.800000e+01	-4.175156e-02	8.024287e-02	-1.408623e-01	6.735526e-04	1.429413e-03	-4.747609e-04	7.636406e-05	-1.427112e-01	3.491272e-02	2.356110e-04	1.611200e-04	8.538670e-03	4.561646e-04	1.407434e-03	1.044423e+02	1.484839e+02	
5.900000e+01	-4.071373e-02	8.105789e-02	-1.390709e-01	7.080701e-04	1.454366e-03	-4.768881e-04	3.703418e-05	-1.417358e-01	3.015463e-02	2.417888e-04	1.249277e-04	8.759222e-03	2.230460e-04	1.456223e-03	1.041941e+02	1.486091e+02	
6.000000e+01	-4.014691e-02	8.151915e-02	-1.372305e-01	7.366703e-04	1.475645e-03	-4.782351e-04	-3.325635e-06	-1.406707e-01	2.560735e-02	2.500365e-04	8.727440e-05	8.965664e-03	-2.020576e-05	1.519162e-03	1.041182e+02	1.487246e+02	
6.100000e+01	-4.012648e-02	8.165497e-02	-1.352017e-01	7.588416e-04	1.491468e-03	-4.782172e-04	-4.350793e-05	-1.393910e-01	2.144236e-02	2.606324e-04	4.980864e-05	9.152153e-03	-2.669793e-04	1.599328e-03	1.042545e+02	1.487985e+02	
6.200000e+01	-4.069956e-02	8.152377e-02	-1.328359e-01	7.747945e-04	1.500401e-03	-4.766092e-04	-8.202599e-05	-1.377830e-01	1.782355e-02	2.740544e-04	1.432360e-05	9.314417e-03	-5.092134e-04	1.701316e-03	1.046351e+02	1.487985e+02	
6.300000e+01	-4.188400e-02	8.117699e-02	-1.300196e-01	7.850177e-04	1.501653e-03	-4.734976e-04	-1.175876e-04	-1.357840e-01	1.490217e-02	2.905807e-04	-1.764774e-05	9.450328e-03	-7.400119e-04	1.828707e-03	1.052831e+02	1.487076e+02	
6.400000e+01	-4.365686e-02	8.061109e-02	-1.266509e-01	7.894206e-04	1.494354e-03	-4.691292e-04	-1.489357e-04	-1.333522e-01	1.278943e-02	3.103690e-04	-4.478646e-05	9.557908e-03	-9.525943e-04	1.985124e-03	1.062143e+02	1.485310e+02	
6.500000e+01	-4.584456e-02	7.979465e-02	-1.226981e-01	7.879439e-04	1.477891e-03	-4.634929e-04	-1.752938e-04	-1.304872e-01	1.138582e-02	3.329162e-04	-6.684286e-05	9.635837e-03	-1.142914e-03	2.170611e-03	1.073919e+02	1.482961e+02	
6.600000e+01	-4.822754e-02	7.871563e-02	-1.181896e-01	7.809479e-04	1.452330e-03	-4.566096e-04	-1.962229e-04	-1.272164e-01	1.052017e-02	3.574434e-04	-8.401493e-05	9.684174e-03	-1.308419e-03	2.383441e-03	1.087587e+02	1.480254e+02	
6.700000e+01	-5.060103e-02	7.735008e-02	-1.131578e-01	7.707684e-04	1.421980e-03	-4.500261e-04	-2.156187e-04	-1.235495e-01	1.003423e-02	3.809376e-04	-9.907139e-05	9.732242e-03	-1.475726e-03	2.607194e-03	1.102625e+02	1.477354e+02	
6.800000e+01	-5.277165e-02	7.569793e-02	-1.076476e-01	7.533335e-04	1.378017e-03	-4.399805e-04	-2.248227e-04	-1.194864e-01	9.790533e-03	4.067055e-04	-1.071484e-04	9.719051e-03	-1.585658e-03	2.868463e-03	1.118511e+02	1.474294e+02	
6.900000e+01	-5.456235e-02	7.379492e-02	-1.017323e-01	7.325825e-04	1.325418e-03	-4.267012e-04	-2.295541e-04	-1.150347e-01	9.670702e-03	4.301482e-04	-1.122566e-04	9.673759e-03	-1.675435e-03	3.139501e-03	1.134677e+02	1.470977e+02	
7.000000e+01	-5.584955e-02	7.164218e-02	-9.547778e-02	7.094482e-04	1.264480e-03	-4.091990e-04	-2.308138e-04	-1.101958e-01	9.595091e-03	4.493651e-04	-1.153939e-04	9.594887e-03	-1.751417e-03	3.409786e-03	1.150739e+02	1.467376e+02	
7.100000e+01	-5.656144e-02	6.923025e-02	-8.895433e-02	6.844628e-04	1.195644e-03	-3.869922e-04	-2.293654e-04	-1.049835e-01	9.514610e-03	4.629456e-04	-1.172725e-04	9.480617e-03	-1.818706e-03	3.670832e-03	1.166470e+02	1.463508e+02	
7.200000e+01	-5.667042e-02	6.655914e-02	-8.225526e-02	6.579683e-04	1.120670e-03	-3.612022e-04	-2.259784e-04	-9.944349e-02	9.405207e-03	4.702322e-04	-1.183778e-04	9.336459e-03	-1.882658e-03	3.917570e-03	1.181726e+02	1.459427e+02	
7.300000e+01	-5.619554e-02	6.360332e-02	-7.547440e-02	6.293657e-04	1.041795e-03	-3.338453e-04	-2.212764e-04	-9.363881e-02	9.278820e-03	4.712573e-04	-1.187770e-04	9.172597e-03	-1.948253e-03	4.149236e-03	1.196553e+02	1.455331e+02	
7.400000e+01	-5.518142e-02	6.034649e-02	-6.871515e-02	5.978892e-04	9.612924e-04	-3.067441e-04	-2.158482e-04	-8.765285e-02	9.150952e-03	4.663419e-04	-1.184777e-04	8.999990e-03	-2.020854e-03	4.366072e-03	1.211065e+02	1.451489e+02	
7.500000e+01	-5.366583e-02	5.681679e-02	-6.210215e-02	5.636147e-04	8.817609e-04	-2.813177e-04	-2.103688e-04	-8.158181e-02	9.005884e-03	4.558284e-04	-1.177573e-04	8.833149e-03	-2.107395e-03	4.566317e-03	1.225207e+02	1.448111e+02	
7.600000e+01	-5.168314e-02	5.302973e-02	-5.577529e-02	5.266979e-04	8.057762e-04	-2.583698e-04	-2.051090e-04	-7.552742e-02	8.811284e-03	4.401324e-04	-1.166209e-04	8.691849e-03	-2.212495e-03	4.747676e-03	1.238833e+02	1.445586e+02	
7.700000e+01	-4.927959e-02	4.898431e-02	-4.987405e-02	4.868370e-04	7.356295e-04	-2.385119e-04	-2.002615e-04	-6.959271e-02	8.529611e-03	4.198374e-04	-1.148991e-04	8.600848e-03	-2.341421e-03	4.908663e-03	1.251815e+02	1.444557e+02	
7.800000e+01	-4.650079e-02	4.471491e-02	-4.454332e-02	4.441949e-04	6.736386e-04	-2.222709e-04	-1.962848e-04	-6.388149e-02	8.098490e-03	3.956032e-04	-1.127038e-04	8.592823e-03	-2.503777e-03	5.046250e-03	1.263814e+02	1.445737e+02	
7.900000e+01	-4.343141e-02	4.024806e-02	-3.989024e-02	3.983527e-04	6.215032e-04	-2.100763e-04	-1.938417e-04	-5.849786e-02	7.451097e-03	3.684354e-04	-1.101991e-04	8.704983e-03	-2.715012e-03	5.160431e-03	1.274678e+02	1.450189e+02	
8.000000e+01	-4.020169e-02	3.558889e-02	-3.595248e-02	3.481008e-04	5.800190e-04	-2.021592e-04	-1.938402e-04	-5.353691e-02	6.523513e-03	3.396164e-04	-1.075895e-04	8.976293e-03	-2.999844e-03	5.255856e-03	1.284738e+02	1.459481e+02	
8.100000e+01	-3.692099e-02	3.080348e-02	-3.275508e-02	2.935721e-04	5.501092e-04	-1.985132e-04	-1.973077e-04	-4.907519e-02	5.261159e-03	3.101963e-04	-1.053489e-04	9.455302e-03	-3.391333e-03	5.331668e-03	1.293903e+02	1.475123e+02	
8.200000e+01	-3.368601e-02	2.598716e-02	-3.031156e-02	2.356395e-04	5.326772e-04	-1.989006e-04	-2.052095e-04	-4.516985e-02	3.636358e-03	2.810577e-04	-1.039343e-04	1.019701e-02	-3.928313e-03	5.380269e-03	1.301544e+02	1.498466e+02	
8.300000e+01	-3.055769e-02	2.121808e-02	-2.863736e-02	1.750609e-04	5.284811e-04	-2.028973e-04	-2.180260e-04	-4.184575e-02	1.674493e-03	2.527944e-04	-1.032234e-04	1.125683e-02	-4.644029e-03	5.384607e-03	1.306087e+02	1.530408e+02	
8.400000e+01	-2.756090e-02	1.660543e-02	-2.776371e-02	1.135405e-04	5.384238e-04	-2.100240e-04	-2.359919e-04	-3.911622e-02	-5.900533e-04	2.257956e-04	-1.031231e-04	1.266909e-02	-5.552879e-03	5.312960e-03	1.304292e+02	1.569851e+02	
8.500000e+01	-2.471655e-02	1.227156e-02	-2.769823e-02	5.335363e-05	5.630374e-04	-2.197534e-04	-2.591967e-04	-3.699069e-02	-3.128698e-03	2.004734e-04	-1.037557e-04	1.440049e-02	-6.629329e-03	5.127396e-03	1.292098e+02	1.611009e+02	
