Pct	FAxFem(N)	FAP(N)	FDV(N)	HipTorqAP(Nm)	HipTorqDV(Nm)	FemTorsion(Nm)	TKFlex(Nm)	FAxTib(N)	FMLTib(N)	TAnkFlex(Nm)	TibTorsion(Nm)	Rhip(m)	Rknee(m)	Rankle(m)	Fem-GRFang(deg)	Tib-GRFang(deg)	
0.000000e+00	5.167606e-03	-3.884509e-03	-4.142122e-02	-1.004491e-04	1.130497e-03	-4.464384e-05	-7.814418e-04	-1.954856e-02	-3.688192e-02	3.071335e-05	2.320703e-06	2.696623e-02	-1.864007e-02	7.326190e-04	8.291945e+01	1.177944e+02	
1.000000e+00	5.355062e-03	-1.794512e-03	-5.566002e-02	-4.374389e-05	1.493363e-03	-4.576454e-05	-1.024418e-03	-3.058612e-02	-4.681029e-02	1.235760e-05	-1.785737e-05	2.669302e-02	-1.831090e-02	2.208851e-04	8.450734e+01	1.231416e+02	
2.000000e+00	6.188715e-03	-3.512304e-04	-7.063644e-02	-4.979850e-06	1.868595e-03	-4.921034e-05	-1.272199e-03	-4.247717e-02	-5.677585e-02	-1.013724e-06	-3.533692e-05	2.635243e-02	-1.794157e-02	-1.429635e-05	8.499299e+01	1.268017e+02	
3.000000e+00	7.476354e-03	3.486605e-04	-8.608381e-02	1.412328e-05	2.249521e-03	-5.771089e-05	-1.520347e-03	-5.507613e-02	-6.658032e-02	-8.308650e-06	-4.895645e-05	2.603355e-02	-1.759486e-02	-9.615540e-05	8.503640e+01	1.295977e+02	
4.000000e+00	9.033881e-03	2.855402e-04	-1.016897e-01	1.386416e-05	2.627871e-03	-7.300070e-05	-1.763532e-03	-6.818676e-02	-7.598012e-02	-9.202368e-06	-5.816494e-05	2.574058e-02	-1.727418e-02	-9.013921e-05	8.492335e+01	1.319056e+02	
5.000000e+00	1.070777e-02	-4.206739e-04	-1.171523e-01	-2.047577e-06	2.995367e-03	-9.527614e-05	-1.996713e-03	-8.159962e-02	-8.473975e-02	-4.686311e-06	-6.349335e-05	2.546185e-02	-1.697288e-02	-3.983556e-05	8.477772e+01	1.339182e+02	
6.000000e+00	1.239571e-02	-1.465211e-03	-1.322377e-01	-2.555374e-05	3.345359e-03	-1.228239e-04	-2.216302e-03	-9.512388e-02	-9.269253e-02	2.529442e-06	-6.698349e-05	2.518612e-02	-1.668582e-02	1.904335e-05	8.464521e+01	1.357381e+02	
7.000000e+00	1.408119e-02	-2.500695e-03	-1.467008e-01	-4.786529e-05	3.671345e-03	-1.533277e-04	-2.419313e-03	-1.085031e-01	-9.973213e-02	9.258787e-06	-7.134714e-05	2.490799e-02	-1.641366e-02	6.281561e-05	8.451804e+01	1.374030e+02	
8.000000e+00	1.573050e-02	-3.326760e-03	-1.603448e-01	-6.407180e-05	3.968396e-03	-1.861555e-04	-2.603604e-03	-1.215034e-01	-1.058057e-01	1.359003e-05	-7.883075e-05	2.462564e-02	-1.615650e-02	8.433211e-05	8.439820e+01	1.389365e+02	
9.000000e+00	1.719269e-02	-4.066810e-03	-1.730641e-01	-7.716855e-05	4.233999e-03	-2.247328e-04	-2.767541e-03	-1.340072e-01	-1.108550e-01	1.648987e-05	-8.998800e-05	2.433843e-02	-1.590874e-02	9.478923e-05	8.432827e+01	1.403825e+02	
1.000000e+01	1.834234e-02	-4.998204e-03	-1.847510e-01	-9.355251e-05	4.466122e-03	-2.747017e-04	-2.909394e-03	-1.459019e-01	-1.148128e-01	2.020469e-05	-1.043512e-04	2.404677e-02	-1.566494e-02	1.087873e-04	8.433226e+01	1.417739e+02	
1.100000e+01	1.914108e-02	-6.343124e-03	-1.953324e-01	-1.180145e-04	4.663706e-03	-3.411727e-04	-3.027596e-03	-1.571181e-01	-1.176224e-01	2.645855e-05	-1.213661e-04	2.374952e-02	-1.541777e-02	1.347379e-04	8.440628e+01	1.431407e+02	
1.200000e+01	1.974954e-02	-7.989940e-03	-2.047673e-01	-1.474446e-04	4.825143e-03	-4.233407e-04	-3.119673e-03	-1.676590e-01	-1.192063e-01	3.411141e-05	-1.409281e-04	2.343752e-02	-1.515342e-02	1.656919e-04	8.449513e+01	1.445264e+02	
1.300000e+01	2.042288e-02	-9.730496e-03	-2.130072e-01	-1.763916e-04	4.948289e-03	-5.178816e-04	-3.182677e-03	-1.775308e-01	-1.194653e-01	4.103682e-05	-1.626363e-04	2.310071e-02	-1.485808e-02	1.915772e-04	8.452899e+01	1.459746e+02	
1.400000e+01	2.144977e-02	-1.125914e-02	-2.200759e-01	-1.971138e-04	5.033033e-03	-6.194758e-04	-3.215141e-03	-1.867796e-01	-1.183505e-01	4.403231e-05	-1.863083e-04	2.273223e-02	-1.452153e-02	1.988766e-04	8.444049e+01	1.475234e+02	
1.500000e+01	2.293281e-02	-1.222083e-02	-2.260380e-01	-2.016819e-04	5.082837e-03	-7.207461e-04	-3.218500e-03	-1.953721e-01	-1.159691e-01	3.980107e-05	-2.119446e-04	2.233951e-02	-1.414559e-02	1.749292e-04	8.421527e+01	1.491685e+02	
1.600000e+01	2.478825e-02	-1.229201e-02	-2.309386e-01	-1.842957e-04	5.102629e-03	-8.133106e-04	-3.195758e-03	-2.031950e-01	-1.125117e-01	2.599334e-05	-2.394866e-04	2.193828e-02	-1.373987e-02	1.117560e-04	8.388213e+01	1.508819e+02	
1.700000e+01	2.689501e-02	-1.117535e-02	-2.348615e-01	-1.408456e-04	5.098723e-03	-8.886711e-04	-3.151431e-03	-2.101715e-01	-1.082183e-01	1.031490e-06	-2.692148e-04	2.154447e-02	-1.331626e-02	4.358524e-06	8.347462e+01	1.526320e+02	
1.800000e+01	2.910356e-02	-8.867231e-03	-2.378615e-01	-7.377426e-05	5.075679e-03	-9.434985e-04	-3.089389e-03	-2.162262e-01	-1.033020e-01	-3.403387e-05	-3.005775e-04	2.116636e-02	-1.288323e-02	-1.419265e-04	8.302907e+01	1.543820e+02	
1.900000e+01	3.123318e-02	-5.708276e-03	-2.399881e-01	8.012296e-06	5.035414e-03	-9.818530e-04	-3.011647e-03	-2.213237e-01	-9.790610e-02	-7.553450e-05	-3.318564e-04	2.080068e-02	-1.244075e-02	-3.120238e-04	8.258704e+01	1.561011e+02	
2.000000e+01	3.310084e-02	-2.004181e-03	-2.413592e-01	9.694531e-05	4.980553e-03	-1.008451e-03	-2.920211e-03	-2.255125e-01	-9.216323e-02	-1.200577e-04	-3.615931e-04	2.044338e-02	-1.198642e-02	-4.927937e-04	8.219127e+01	1.577663e+02	
2.100000e+01	3.453986e-02	1.977970e-03	-2.420742e-01	1.867368e-04	4.912520e-03	-1.027431e-03	-2.816134e-03	-2.288513e-01	-8.613949e-02	-1.644388e-04	-3.880649e-04	2.008932e-02	-1.151633e-02	-6.724580e-04	8.187997e+01	1.593688e+02	
2.200000e+01	3.551163e-02	6.137602e-03	-2.422178e-01	2.748400e-04	4.831082e-03	-1.039657e-03	-2.700233e-03	-2.314308e-01	-7.981457e-02	-2.070674e-04	-4.098181e-04	1.972803e-02	-1.102657e-02	-8.455729e-04	8.166194e+01	1.609199e+02	
2.300000e+01	3.601301e-02	1.041927e-02	-2.418956e-01	3.596528e-04	4.735704e-03	-1.045619e-03	-2.573295e-03	-2.333721e-01	-7.312935e-02	-2.468709e-04	-4.256059e-04	1.934649e-02	-1.051253e-02	-1.008527e-03	8.153986e+01	1.624362e+02	
2.400000e+01	3.597216e-02	1.471162e-02	-2.411741e-01	4.382173e-04	4.624195e-03	-1.046844e-03	-2.434711e-03	-2.347578e-01	-6.593722e-02	-2.821959e-04	-4.335528e-04	1.892947e-02	-9.966664e-03	-1.155189e-03	8.153217e+01	1.639453e+02	
2.500000e+01	3.514528e-02	1.882985e-02	-2.401569e-01	5.057574e-04	4.495534e-03	-1.047393e-03	-2.282831e-03	-2.356716e-01	-5.804697e-02	-3.102066e-04	-4.313208e-04	1.846638e-02	-9.377224e-03	-1.274241e-03	8.169941e+01	1.654828e+02	
2.600000e+01	3.321159e-02	2.259207e-02	-2.389593e-01	5.574525e-04	4.349855e-03	-1.051928e-03	-2.115475e-03	-2.361770e-01	-4.924376e-02	-3.276032e-04	-4.163269e-04	1.795149e-02	-8.730391e-03	-1.351991e-03	8.212219e+01	1.670800e+02	
2.700000e+01	2.984963e-02	2.587850e-02	-2.376045e-01	5.895150e-04	4.186096e-03	-1.063382e-03	-1.929585e-03	-2.362327e-01	-3.925563e-02	-3.311973e-04	-3.856793e-04	1.737933e-02	-8.011020e-03	-1.375025e-03	8.288129e+01	1.687434e+02	
2.800000e+01	2.504954e-02	2.892043e-02	-2.360416e-01	6.050390e-04	4.005476e-03	-1.076837e-03	-1.725596e-03	-2.357176e-01	-2.793429e-02	-3.213790e-04	-3.388468e-04	1.675074e-02	-7.216375e-03	-1.343994e-03	8.398691e+01	1.703198e+02	
2.900000e+01	1.923670e-02	3.220668e-02	-2.341503e-01	6.130695e-04	3.812055e-03	-1.080058e-03	-1.509603e-03	-2.344344e-01	-1.539162e-02	-3.028428e-04	-2.786100e-04	1.607537e-02	-6.365970e-03	-1.277083e-03	8.534704e+01	1.713426e+02	
3.000000e+01	1.286687e-02	3.603227e-02	-2.318104e-01	6.200629e-04	3.609200e-03	-1.063920e-03	-1.288628e-03	-2.321596e-01	-1.876998e-03	-2.803155e-04	-2.086926e-04	1.536179e-02	-5.484770e-03	-1.193103e-03	8.686065e+01	1.711661e+02	
3.100000e+01	6.294866e-03	4.042098e-02	-2.290141e-01	6.283027e-04	3.399988e-03	-1.026129e-03	-1.068960e-03	-2.287751e-01	1.220834e-02	-2.572361e-04	-1.333547e-04	1.461486e-02	-4.594928e-03	-1.105731e-03	8.844950e+01	1.695428e+02	
3.200000e+01	-6.876783e-04	4.495634e-02	-2.258491e-01	6.308332e-04	3.184098e-03	-9.775917e-04	-8.505604e-04	-2.242965e-01	2.644532e-02	-2.303876e-04	-5.373400e-05	1.382701e-02	-3.693575e-03	-1.000463e-03	9.017113e+01	1.669092e+02	
3.300000e+01	-8.365532e-03	4.935493e-02	-2.223297e-01	6.223984e-04	2.961027e-03	-9.280538e-04	-6.322141e-04	-2.187836e-01	4.042523e-02	-1.955531e-04	2.987375e-05	1.299291e-02	-2.774140e-03	-8.580823e-04	9.210370e+01	1.637433e+02	
3.400000e+01	-1.684882e-02	5.362540e-02	-2.184062e-01	6.028569e-04	2.732495e-03	-8.821674e-04	-4.145632e-04	-2.123712e-01	5.369926e-02	-1.500525e-04	1.165884e-04	1.211624e-02	-1.838226e-03	-6.653520e-04	9.428458e+01	1.603359e+02	
3.500000e+01	-2.569018e-02	5.813455e-02	-2.138939e-01	5.801048e-04	2.503308e-03	-8.348634e-04	-2.045499e-04	-2.051857e-01	6.564635e-02	-9.715245e-05	2.016353e-04	1.121869e-02	-9.167000e-04	-4.353933e-04	9.661126e+01	1.568603e+02	
3.600000e+01	-3.413791e-02	6.329226e-02	-2.086098e-01	5.644080e-04	2.280106e-03	-7.783716e-04	-1.293601e-05	-1.974259e-01	7.554112e-02	-4.319508e-05	2.780174e-04	1.033327e-02	-5.862505e-05	-1.957569e-04	9.890004e+01	1.534725e+02	
3.700000e+01	-4.148309e-02	6.931165e-02	-2.024934e-01	5.634353e-04	2.070183e-03	-7.086229e-04	1.496493e-04	-1.894310e-01	8.270617e-02	6.517495e-06	3.395318e-04	9.495801e-03	6.864323e-04	2.989534e-05	1.009692e+02	1.503321e+02	
3.800000e+01	-4.736495e-02	7.606558e-02	-1.955351e-01	5.793990e-04	1.879179e-03	-6.259476e-04	2.765092e-04	-1.814887e-01	8.682891e-02	5.022508e-05	3.831910e-04	8.736739e-03	1.285556e-03	2.335081e-04	1.027214e+02	1.475419e+02	
3.900000e+01	-5.184874e-02	8.317851e-02	-1.877816e-01	6.103822e-04	1.710683e-03	-5.337355e-04	3.664724e-04	-1.737512e-01	8.809503e-02	8.947577e-05	4.094938e-04	8.076010e-03	1.730090e-03	4.224087e-04	1.041685e+02	1.451116e+02	
4.000000e+01	-5.510717e-02	9.023205e-02	-1.793631e-01	6.540786e-04	1.566852e-03	-4.366530e-04	4.205504e-04	-1.663230e-01	8.685957e-02	1.259044e-04	4.194823e-04	7.525489e-03	2.019876e-03	6.047107e-04	1.053477e+02	1.430194e+02	
4.100000e+01	-5.736817e-02	9.679088e-02	-1.704630e-01	7.075449e-04	1.447635e-03	-3.400423e-04	4.425340e-04	-1.592304e-01	8.363275e-02	1.607570e-04	4.149387e-04	7.087635e-03	2.166651e-03	7.870681e-04	1.063125e+02	1.412234e+02	
4.200000e+01	-5.864384e-02	1.026933e-01	-1.613367e-01	7.741976e-04	1.358324e-03	-2.486926e-04	4.328890e-04	-1.533219e-01	7.720777e-02	2.050166e-04	3.926411e-04	6.790383e-03	2.164051e-03	1.024897e-03	1.070476e+02	1.400380e+02	
4.300000e+01	-5.895596e-02	1.072932e-01	-1.526657e-01	8.396833e-04	1.287006e-03	-1.678581e-04	4.136004e-04	-1.470580e-01	7.180927e-02	2.333866e-04	3.685660e-04	6.576771e-03	2.113552e-03	1.192636e-03	1.075341e+02	1.387193e+02	
4.400000e+01	-5.839641e-02	1.106858e-01	-1.446803e-01	9.067546e-04	1.237709e-03	-9.944581e-05	3.846761e-04	-1.413191e-01	6.611681e-02	2.552242e-04	3.393082e-04	6.470150e-03	2.010902e-03	1.334190e-03	1.077744e+02	1.376250e+02	
4.500000e+01	-5.711027e-02	1.130058e-01	-1.375929e-01	9.731162e-04	1.207122e-03	-4.408762e-05	3.499997e-04	-1.362113e-01	6.033146e-02	2.705638e-04	3.067085e-04	6.455686e-03	1.871798e-03	1.446975e-03	1.077838e+02	1.367573e+02	
4.600000e+01	-5.528427e-02	1.144823e-01	-1.314787e-01	1.036628e-03	1.191327e-03	-1.653573e-06	3.114246e-04	-1.318292e-01	5.444330e-02	2.815212e-04	2.718455e-04	6.513857e-03	1.702786e-03	1.539282e-03	1.075946e+02	1.361211e+02	
4.700000e+01	-5.308002e-02	1.153165e-01	-1.263557e-01	1.095381e-03	1.187219e-03	2.829164e-05	2.702400e-04	-1.282248e-01	4.839057e-02	2.907018e-04	2.356281e-04	6.628354e-03	1.508776e-03	1.623016e-03	1.072386e+02	1.357163e+02	
4.800000e+01	-5.070986e-02	1.156748e-01	-1.222478e-01	1.148353e-03	1.193282e-03	4.636173e-05	2.276006e-04	-1.254231e-01	4.225004e-02	2.998113e-04	1.988379e-04	6.788710e-03	1.294844e-03	1.705659e-03	1.067678e+02	1.355242e+02	
4.900000e+01	-4.852886e-02	1.156214e-01	-1.191030e-01	1.194132e-03	1.207666e-03	5.342259e-05	1.853559e-04	-1.233527e-01	3.639620e-02	3.092700e-04	1.627136e-04	6.983079e-03	1.071782e-03	1.788289e-03	1.062965e+02	1.355009e+02	
5.000000e+01	-4.684042e-02	1.152569e-01	-1.167923e-01	1.232131e-03	1.227771e-03	5.111526e-05	1.450157e-04	-1.219109e-01	3.118000e-02	3.190227e-04	1.282364e-04	7.195023e-03	8.498256e-04	1.869547e-03	1.059320e+02	1.355962e+02	
5.100000e+01	-4.581276e-02	1.147441e-01	-1.151658e-01	1.263239e-03	1.251230e-03	4.170339e-05	1.074462e-04	-1.210038e-01	2.683354e-02	3.286051e-04	9.596206e-05	7.407986e-03	6.361417e-04	1.945527e-03	1.057379e+02	1.357590e+02	
5.200000e+01	-4.535007e-02	1.142161e-01	-1.140734e-01	1.288710e-03	1.276202e-03	2.744497e-05	7.325834e-05	-1.205183e-01	2.333947e-02	3.375446e-04	6.645458e-05	7.611193e-03	4.369083e-04	2.013095e-03	1.056920e+02	1.359525e+02	
5.300000e+01	-4.524818e-02	1.137910e-01	-1.133779e-01	1.310419e-03	1.301430e-03	1.064256e-05	4.266460e-05	-1.203245e-01	2.059030e-02	3.449457e-04	3.994442e-05	7.798398e-03	2.556539e-04	2.066976e-03	1.057319e+02	1.361376e+02	
5.400000e+01	-4.528609e-02	1.135516e-01	-1.129523e-01	1.330285e-03	1.325926e-03	-6.673169e-06	1.567786e-05	-1.202834e-01	1.846498e-02	3.497280e-04	1.644053e-05	7.966283e-03	9.419402e-05	2.101198e-03	1.057883e+02	1.362757e+02	
5.500000e+01	-4.542160e-02	1.134634e-01	-1.126160e-01	1.348758e-03	1.348146e-03	-2.363148e-05	-7.997367e-06	-1.202556e-01	1.685441e-02	3.526040e-04	-4.281874e-06	8.112030e-03	-4.812157e-05	2.121680e-03	1.058613e+02	1.363525e+02	
5.600000e+01	-4.569394e-02	1.134896e-01	-1.121977e-01	1.366632e-03	1.367159e-03	-3.994610e-05	-2.925719e-05	-1.201351e-01	1.561525e-02	3.551161e-04	-2.305882e-05	8.235875e-03	-1.762477e-04	2.139248e-03	1.059778e+02	1.363611e+02	
5.700000e+01	-4.615632e-02	1.135738e-01	-1.115289e-01	1.384269e-03	1.381919e-03	-5.554682e-05	-4.882317e-05	-1.198132e-01	1.462508e-02	3.588559e-04	-4.062083e-05	8.338117e-03	-2.945856e-04	2.165238e-03	1.061704e+02	1.362961e+02	
5.800000e+01	-4.686612e-02	1.135845e-01	-1.104393e-01	1.400043e-03	1.390178e-03	-7.005099e-05	-6.681214e-05	-1.191689e-01	1.385799e-02	3.647345e-04	-5.714219e-05	8.414558e-03	-4.044046e-04	2.207688e-03	1.064797e+02	1.361630e+02	
5.900000e+01	-4.784168e-02	1.134034e-01	-1.088547e-01	1.411681e-03	1.389774e-03	-8.229269e-05	-8.315831e-05	-1.181506e-01	1.336453e-02	3.721993e-04	-7.262320e-05	8.458130e-03	-5.060993e-04	2.265195e-03	1.069276e+02	1.359771e+02	
6.000000e+01	-4.913473e-02	1.129080e-01	-1.067155e-01	1.416405e-03	1.378341e-03	-9.104288e-05	-9.741030e-05	-1.167347e-01	1.324470e-02	3.808587e-04	-8.657940e-05	8.459004e-03	-5.978159e-04	2.337365e-03	1.075504e+02	1.357591e+02	
6.100000e+01	-5.077197e-02	1.120100e-01	-1.039667e-01	1.412185e-03	1.353937e-03	-9.521541e-05	-1.088897e-04	-1.149014e-01	1.358400e-02	3.904159e-04	-9.828977e-05	8.407585e-03	-6.761759e-04	2.424378e-03	1.083778e+02	1.355210e+02	
6.200000e+01	-5.261130e-02	1.107855e-01	-1.005886e-01	1.400990e-03	1.316884e-03	-9.442863e-05	-1.169930e-04	-1.126108e-01	1.431160e-02	4.004599e-04	-1.073611e-04	8.302275e-03	-7.375805e-04	2.524693e-03	1.093712e+02	1.352311e+02	
6.300000e+01	-5.450872e-02	1.093145e-01	-9.655860e-02	1.384812e-03	1.267464e-03	-8.873126e-05	-1.207689e-04	-1.098133e-01	1.535617e-02	4.109867e-04	-1.131115e-04	8.140096e-03	-7.756202e-04	2.639501e-03	1.104919e+02	1.348505e+02	
6.400000e+01	-5.632246e-02	1.076899e-01	-9.188690e-02	1.365812e-03	1.206364e-03	-7.835376e-05	-1.195020e-04	-1.064831e-01	1.663673e-02	4.219900e-04	-1.150884e-04	7.918027e-03	-7.843573e-04	2.769751e-03	1.116956e+02	1.343394e+02	
6.500000e+01	-5.792883e-02	1.060472e-01	-8.663000e-02	1.346983e-03	1.134795e-03	-6.305601e-05	-1.131600e-04	-1.026307e-01	1.809524e-02	4.327668e-04	-1.136007e-04	7.632333e-03	-7.610843e-04	2.910675e-03	1.129305e+02	1.336513e+02	
6.600000e+01	-5.925349e-02	1.044473e-01	-8.081340e-02	1.329820e-03	1.052981e-03	-4.242416e-05	-1.015652e-04	-9.824415e-02	1.974506e-02	4.425593e-04	-1.087144e-04	7.274749e-03	-7.016851e-04	3.057517e-03	1.141650e+02	1.327454e+02	
6.700000e+01	-6.021646e-02	1.029172e-01	-7.448472e-02	1.315345e-03	9.615505e-04	-1.639071e-05	-8.483503e-05	-9.331869e-02	2.157817e-02	4.505567e-04	-1.006662e-04	6.839326e-03	-6.034154e-04	3.204724e-03	1.153603e+02	1.315872e+02	
6.800000e+01	-6.079461e-02	1.014218e-01	-6.774861e-02	1.303463e-03	8.621086e-04	1.433056e-05	-6.378762e-05	-8.792692e-02	2.355238e-02	4.562610e-04	-9.013549e-05	6.326009e-03	-4.680629e-04	3.347967e-03	1.164938e+02	1.301802e+02	
6.900000e+01	-6.106424e-02	9.979964e-02	-6.071422e-02	1.295055e-03	7.593007e-04	4.667768e-05	-4.258725e-05	-8.220721e-02	2.563263e-02	4.563081e-04	-8.160338e-05	5.760379e-03	-3.230850e-04	3.461748e-03	1.175977e+02	1.285839e+02	
7.000000e+01	-6.108706e-02	9.793148e-02	-5.352853e-02	1.281184e-03	6.490200e-04	8.218471e-05	-1.602758e-05	-7.633361e-02	2.775091e-02	4.577657e-04	-6.830432e-05	5.101150e-03	-1.259732e-04	3.597935e-03	1.186940e+02	1.268674e+02	
7.100000e+01	-6.091568e-02	9.572500e-02	-4.636044e-02	1.263710e-03	5.373136e-04	1.174054e-04	1.154619e-05	-7.049287e-02	2.984570e-02	4.570204e-04	-5.489043e-05	4.383746e-03	9.420119e-05	3.728663e-03	1.198010e+02	1.251085e+02	
7.200000e+01	-6.055305e-02	9.309508e-02	-3.936598e-02	1.240217e-03	4.266893e-04	1.502765e-04	3.970732e-05	-6.480441e-02	3.188637e-02	4.539518e-04	-4.104255e-05	3.621340e-03	3.369987e-04	3.852719e-03	1.209252e+02	1.233670e+02	
7.300000e+01	-5.997484e-02	9.004700e-02	-3.272338e-02	1.209905e-03	3.204221e-04	1.790607e-04	6.753694e-05	-5.937432e-02	3.380075e-02	4.482377e-04	-2.688799e-05	2.834788e-03	5.975021e-04	3.965578e-03	1.220460e+02	1.216876e+02	
7.400000e+01	-5.917863e-02	8.660327e-02	-2.657405e-02	1.172178e-03	2.213043e-04	2.025029e-04	9.404617e-05	-5.428062e-02	3.552331e-02	4.398739e-04	-1.253942e-05	2.045224e-03	8.691445e-04	4.065174e-03	1.231553e+02	1.201089e+02	
7.500000e+01	-5.816638e-02	8.280998e-02	-2.092755e-02	1.127763e-03	1.302755e-04	2.202854e-04	1.183962e-04	-4.952832e-02	3.698967e-02	4.293750e-04	1.500913e-06	1.260671e-03	1.145716e-03	4.155046e-03	1.242548e+02	1.186387e+02	
7.600000e+01	-5.693548e-02	7.878124e-02	-1.575663e-02	1.079361e-03	4.784819e-05	2.325009e-04	1.396946e-04	-4.512056e-02	3.813208e-02	4.173121e-04	1.412533e-05	4.859148e-04	1.418647e-03	4.237948e-03	1.253240e+02	1.172720e+02	
7.700000e+01	-5.549818e-02	7.457560e-02	-1.100575e-02	1.028406e-03	-2.630023e-05	2.392823e-04	1.575608e-04	-4.105010e-02	3.893666e-02	4.042989e-04	2.483202e-05	-2.809575e-04	1.683175e-03	4.319006e-03	1.263610e+02	1.160099e+02	
7.800000e+01	-5.387088e-02	7.022850e-02	-6.651304e-03	9.753356e-04	-9.249364e-05	2.410011e-04	1.719980e-04	-3.730237e-02	3.943152e-02	3.903897e-04	3.351174e-05	-1.042063e-03	1.937786e-03	4.398257e-03	1.273677e+02	1.148511e+02	
7.900000e+01	-5.207206e-02	6.580422e-02	-2.750895e-03	9.205795e-04	-1.500699e-04	2.382785e-04	1.830220e-04	-3.386875e-02	3.964813e-02	3.749387e-04	3.997931e-05	-1.787400e-03	2.179875e-03	4.465689e-03	1.283309e+02	1.137904e+02	
8.000000e+01	-5.012613e-02	6.131556e-02	6.599637e-04	8.635514e-04	-1.987522e-04	2.317493e-04	1.908334e-04	-3.071966e-02	3.961524e-02	3.576070e-04	4.443689e-05	-2.509493e-03	2.409508e-03	4.515232e-03	1.292648e+02	1.128223e+02	
8.100000e+01	-4.806381e-02	5.681633e-02	3.534947e-03	8.046599e-04	-2.379316e-04	2.220792e-04	1.954760e-04	-2.785027e-02	3.933177e-02	3.383800e-04	4.694025e-05	-3.193578e-03	2.623727e-03	4.541820e-03	1.301751e+02	1.119510e+02	
8.200000e+01	-4.592944e-02	5.240194e-02	5.813273e-03	7.452745e-04	-2.666477e-04	2.098952e-04	1.968302e-04	-2.531854e-02	3.875924e-02	3.178179e-04	4.761964e-05	-3.813430e-03	2.814944e-03	4.545234e-03	1.310605e+02	1.112287e+02	
8.300000e+01	-4.378079e-02	4.812028e-02	7.480471e-03	6.856711e-04	-2.847388e-04	1.958066e-04	1.950075e-04	-2.317046e-02	3.789254e-02	2.968111e-04	4.715188e-05	-4.348157e-03	2.977898e-03	4.532509e-03	1.319563e+02	1.107217e+02	
8.400000e+01	-4.166509e-02	4.405793e-02	8.555752e-03	6.667694e-04	-2.790931e-04	1.582032e-04	1.767345e-04	-2.142473e-02	3.674455e-02	2.364884e-04	1.506851e-06	-4.557399e-03	2.885953e-03	3.861694e-03	1.328720e+02	1.104783e+02	
8.500000e+01	-3.963048e-02	4.027538e-02	9.109936e-03	6.105195e-04	-2.832962e-04	1.475650e-04	1.747395e-04	-2.005936e-02	3.537213e-02	2.168980e-04	3.426142e-06	-4.949833e-03	3.053099e-03	3.789704e-03	1.338232e+02	1.105169e+02	
