Pct	FAxFem(N)	FAP(N)	FDV(N)	HipTorqAP(Nm)	HipTorqDV(Nm)	FemTorsion(Nm)	TKFlex(Nm)	FAxTib(N)	FMLTib(N)	TAnkFlex(Nm)	TibTorsion(Nm)	Rhip(m)	Rknee(m)	Rankle(m)	Fem-GRFang(deg)	Tib-GRFang(deg)	
0.000000e+00	-1.479136e-02	-1.883970e-02	-1.967274e-02	-3.594631e-04	5.619156e-05	-4.065207e-04	1.890670e-04	-2.221194e-02	1.060333e-02	7.907223e-05	4.163254e-05	1.812881e-03	6.099776e-03	2.551069e-03	1.185031e+02	1.357756e+02	
1.000000e+00	-1.707396e-02	-2.138159e-02	-2.177099e-02	-3.945001e-04	3.369838e-05	-4.608265e-04	2.373377e-04	-2.423444e-02	1.334870e-02	8.650817e-05	5.249606e-05	9.637286e-04	6.787541e-03	2.474018e-03	1.192284e+02	1.338739e+02	
2.000000e+00	-1.943174e-02	-2.401757e-02	-2.428410e-02	-4.283945e-04	1.348914e-05	-5.186975e-04	2.885625e-04	-2.650217e-02	1.627713e-02	9.365535e-05	6.447075e-05	3.432725e-04	7.343358e-03	2.383348e-03	1.196368e+02	1.324099e+02	
3.000000e+00	-2.179608e-02	-2.669019e-02	-2.722265e-02	-4.602512e-04	-3.490329e-06	-5.791139e-04	3.420067e-04	-2.901632e-02	1.934412e-02	1.002801e-04	7.746721e-05	-7.947961e-05	7.787964e-03	2.283517e-03	1.197573e+02	1.313565e+02	
4.000000e+00	-2.411964e-02	-2.931251e-02	-3.053195e-02	-4.890780e-04	-1.744284e-05	-6.402997e-04	3.973002e-04	-3.172695e-02	2.252460e-02	1.062713e-04	9.144203e-05	-3.580567e-04	8.155554e-03	2.181477e-03	1.196773e+02	1.306377e+02	
5.000000e+00	-2.637181e-02	-3.177655e-02	-3.412407e-02	-5.140412e-04	-2.891087e-05	-6.999848e-04	4.540636e-04	-3.456393e-02	2.579260e-02	1.116674e-04	1.063152e-04	-5.396907e-04	8.476186e-03	2.084540e-03	1.194914e+02	1.301821e+02	
6.000000e+00	-2.851102e-02	-3.401756e-02	-3.791538e-02	-5.351497e-04	-3.773164e-05	-7.566877e-04	5.113298e-04	-3.747493e-02	2.908753e-02	1.165246e-04	1.217980e-04	-6.463656e-04	8.759386e-03	1.996136e-03	1.192362e+02	1.299388e+02	
7.000000e+00	-3.054781e-02	-3.599211e-02	-4.178450e-02	-5.530564e-04	-4.468934e-05	-8.091462e-04	5.686280e-04	-4.038182e-02	3.237934e-02	1.211609e-04	1.377025e-04	-7.088596e-04	9.019544e-03	1.921848e-03	1.189829e+02	1.298317e+02	
8.000000e+00	-3.250367e-02	-3.768452e-02	-4.563774e-02	-5.686073e-04	-5.033628e-05	-8.567293e-04	6.254851e-04	-4.323243e-02	3.564055e-02	1.259321e-04	1.538608e-04	-7.454637e-04	9.263229e-03	1.865013e-03	1.187749e+02	1.298111e+02	
9.000000e+00	-3.434530e-02	-3.913594e-02	-4.945512e-02	-5.821881e-04	-5.425589e-05	-9.001389e-04	6.809864e-04	-4.602618e-02	3.882009e-02	1.307954e-04	1.700379e-04	-7.555219e-04	9.482843e-03	1.821347e-03	1.185721e+02	1.298606e+02	
1.000000e+01	-3.606985e-02	-4.037344e-02	-5.321967e-02	-5.937897e-04	-5.689133e-05	-9.397931e-04	7.349341e-04	-4.875058e-02	4.191358e-02	1.357993e-04	1.862569e-04	-7.493891e-04	9.680766e-03	1.788788e-03	1.183674e+02	1.299529e+02	
1.100000e+01	-3.766502e-02	-4.143761e-02	-5.695548e-02	-6.033022e-04	-5.833257e-05	-9.764637e-04	7.872213e-04	-5.142488e-02	4.492284e-02	1.408617e-04	2.025481e-04	-7.303188e-04	9.855944e-03	1.763577e-03	1.181358e+02	1.300784e+02	
1.200000e+01	-3.913414e-02	-4.235852e-02	-6.073013e-02	-6.106584e-04	-5.842326e-05	-1.010884e-03	8.384004e-04	-5.411255e-02	4.786921e-02	1.457073e-04	2.187609e-04	-6.976005e-04	1.001089e-02	1.739812e-03	1.178579e+02	1.302504e+02	
1.300000e+01	-4.054902e-02	-4.306647e-02	-6.459356e-02	-6.153774e-04	-5.813305e-05	-1.042023e-03	8.902689e-04	-5.685373e-02	5.083507e-02	1.503923e-04	2.349569e-04	-6.637270e-04	1.016454e-02	1.717085e-03	1.175785e+02	1.304754e+02	
1.400000e+01	-4.195267e-02	-4.346984e-02	-6.860956e-02	-6.167896e-04	-5.778000e-05	-1.068570e-03	9.442797e-04	-5.970378e-02	5.387723e-02	1.548734e-04	2.510852e-04	-6.320542e-04	1.032945e-02	1.694157e-03	1.173174e+02	1.307757e+02	
1.500000e+01	-4.333732e-02	-4.351619e-02	-7.285047e-02	-6.146987e-04	-5.651248e-05	-1.090060e-03	1.000866e-03	-6.274874e-02	5.699044e-02	1.590000e-04	2.668943e-04	-5.930974e-04	1.050407e-02	1.668702e-03	1.170537e+02	1.311892e+02	
1.600000e+01	-4.469479e-02	-4.313972e-02	-7.736664e-02	-6.093840e-04	-5.313246e-05	-1.106127e-03	1.059678e-03	-6.608789e-02	6.012996e-02	1.631393e-04	2.823374e-04	-5.355111e-04	1.068028e-02	1.644247e-03	1.167739e+02	1.317658e+02	
1.700000e+01	-4.597280e-02	-4.230085e-02	-8.221599e-02	-6.011071e-04	-4.563112e-05	-1.116983e-03	1.119613e-03	-6.985070e-02	6.319689e-02	1.674514e-04	2.971335e-04	-4.419113e-04	1.084281e-02	1.621671e-03	1.164375e+02	1.325680e+02	
1.800000e+01	-4.709689e-02	-4.102430e-02	-8.743655e-02	-5.903077e-04	-3.187536e-05	-1.123687e-03	1.179112e-03	-7.415816e-02	6.605933e-02	1.718143e-04	3.107603e-04	-2.966432e-04	1.097323e-02	1.598964e-03	1.159955e+02	1.336414e+02	
1.900000e+01	-4.801142e-02	-3.936908e-02	-9.301565e-02	-5.771226e-04	-1.080722e-05	-1.126959e-03	1.236679e-03	-7.904393e-02	6.862263e-02	1.759532e-04	3.228004e-04	-9.663590e-05	1.105813e-02	1.573337e-03	1.154237e+02	1.349747e+02	
2.000000e+01	-4.863028e-02	-3.743479e-02	-9.895862e-02	-5.614814e-04	1.903059e-05	-1.127919e-03	1.290399e-03	-8.454194e-02	7.078398e-02	1.792138e-04	3.326715e-04	1.634320e-04	1.108176e-02	1.539063e-03	1.146851e+02	1.365550e+02	
2.100000e+01	-4.888312e-02	-3.534591e-02	-1.052637e-01	-5.435427e-04	5.873096e-05	-1.127985e-03	1.338486e-03	-9.066783e-02	7.245243e-02	1.809257e-04	3.397651e-04	4.840864e-04	1.103239e-02	1.491269e-03	1.137607e+02	1.383592e+02	
2.200000e+01	-4.873696e-02	-3.316458e-02	-1.118927e-01	-5.231268e-04	1.078881e-04	-1.127604e-03	1.380220e-03	-9.736583e-02	7.358782e-02	1.807710e-04	3.438713e-04	8.530595e-04	1.091325e-02	1.429336e-03	1.126660e+02	1.403414e+02	
2.300000e+01	-4.811400e-02	-3.091340e-02	-1.188393e-01	-4.994737e-04	1.658402e-04	-1.127124e-03	1.415844e-03	-1.045813e-01	7.416524e-02	1.783061e-04	3.449955e-04	1.257471e-03	1.073553e-02	1.351993e-03	1.113966e+02	1.424649e+02	
2.400000e+01	-4.694113e-02	-2.861798e-02	-1.261001e-01	-4.720363e-04	2.313983e-04	-1.126980e-03	1.446269e-03	-1.122516e-01	7.419088e-02	1.731246e-04	3.433009e-04	1.682120e-03	1.051347e-02	1.258507e-03	1.099520e+02	1.446863e+02	
2.500000e+01	-4.518537e-02	-2.626036e-02	-1.336342e-01	-4.404329e-04	3.025310e-04	-1.126744e-03	1.472875e-03	-1.202791e-01	7.370733e-02	1.652188e-04	3.392467e-04	2.108375e-03	1.026464e-02	1.151429e-03	1.083549e+02	1.469547e+02	
2.600000e+01	-4.292900e-02	-2.387144e-02	-1.413285e-01	-4.058704e-04	3.774284e-04	-1.126308e-03	1.495853e-03	-1.285564e-01	7.273162e-02	1.552025e-04	3.330567e-04	2.522561e-03	9.997609e-03	1.037303e-03	1.066736e+02	1.492284e+02	
2.700000e+01	-4.035980e-02	-2.149623e-02	-1.490066e-01	-3.702671e-04	4.535723e-04	-1.125430e-03	1.515042e-03	-1.369232e-01	7.130162e-02	1.442136e-04	3.250275e-04	2.910029e-03	9.720209e-03	9.252455e-04	1.050072e+02	1.514586e+02	
2.800000e+01	-3.771973e-02	-1.912746e-02	-1.564799e-01	-3.352553e-04	5.279365e-04	-1.123090e-03	1.530338e-03	-1.451908e-01	6.948644e-02	1.337830e-04	3.157598e-04	3.256969e-03	9.441030e-03	8.253401e-04	1.034562e+02	1.536008e+02	
2.900000e+01	-3.512140e-02	-1.680905e-02	-1.636465e-01	-3.017093e-04	5.988990e-04	-1.119168e-03	1.542289e-03	-1.532159e-01	6.736893e-02	1.243100e-04	3.055626e-04	3.560322e-03	9.168569e-03	7.389953e-04	1.020514e+02	1.556210e+02	
3.000000e+01	-3.255547e-02	-1.465315e-02	-1.704526e-01	-2.700224e-04	6.654282e-04	-1.114265e-03	1.553270e-03	-1.608534e-01	6.511644e-02	1.150653e-04	2.946984e-04	3.820978e-03	8.919082e-03	6.607206e-04	1.007742e+02	1.574645e+02	
3.100000e+01	-3.000759e-02	-1.275143e-02	-1.768451e-01	-2.405087e-04	7.267312e-04	-1.108584e-03	1.566123e-03	-1.679681e-01	6.293935e-02	1.054013e-04	2.836622e-04	4.041311e-03	8.709119e-03	5.861308e-04	9.960595e+01	1.590771e+02	
3.200000e+01	-2.745201e-02	-1.120763e-02	-1.828004e-01	-2.136429e-04	7.831049e-04	-1.102916e-03	1.582726e-03	-1.744948e-01	6.100127e-02	9.466188e-05	2.727057e-04	4.228666e-03	8.546518e-03	5.111619e-04	9.852482e+01	1.604328e+02	
3.300000e+01	-2.502970e-02	-1.004838e-02	-1.882942e-01	-1.905277e-04	8.343168e-04	-1.098364e-03	1.601872e-03	-1.804482e-01	5.932658e-02	8.362710e-05	2.620476e-04	4.386153e-03	8.421330e-03	4.396426e-04	9.756126e+01	1.615588e+02	
3.400000e+01	-2.290907e-02	-9.243588e-03	-1.933293e-01	-1.719388e-04	8.798863e-04	-1.095963e-03	1.621232e-03	-1.858813e-01	5.787218e-02	7.338660e-05	2.518625e-04	4.514525e-03	8.318227e-03	3.765323e-04	9.675030e+01	1.625007e+02	
3.500000e+01	-2.118855e-02	-8.764349e-03	-1.979405e-01	-1.581610e-04	9.197711e-04	-1.097068e-03	1.637851e-03	-1.908763e-01	5.653011e-02	6.455086e-05	2.419815e-04	4.615838e-03	8.219497e-03	3.239461e-04	9.610406e+01	1.633166e+02	
3.600000e+01	-1.987277e-02	-8.574391e-03	-2.021466e-01	-1.488160e-04	9.539866e-04	-1.102152e-03	1.650491e-03	-1.954678e-01	5.523145e-02	5.712815e-05	2.322252e-04	4.692460e-03	8.118421e-03	2.810014e-04	9.560965e+01	1.640424e+02	
3.700000e+01	-1.885187e-02	-8.642386e-03	-2.059638e-01	-1.429566e-04	9.835834e-04	-1.110944e-03	1.659346e-03	-1.996712e-01	5.392460e-02	5.047520e-05	2.222689e-04	4.751491e-03	8.015962e-03	2.438354e-04	9.522517e+01	1.647030e+02	
3.800000e+01	-1.797811e-02	-8.960821e-03	-2.094202e-01	-1.396796e-04	1.010424e-03	-1.123450e-03	1.664398e-03	-2.035214e-01	5.252697e-02	4.373089e-05	2.115574e-04	4.802819e-03	7.911339e-03	2.078648e-04	9.490221e+01	1.653282e+02	
3.900000e+01	-1.715996e-02	-9.508776e-03	-2.125208e-01	-1.383146e-04	1.035697e-03	-1.139077e-03	1.666094e-03	-2.070234e-01	5.099879e-02	3.640013e-05	1.997632e-04	4.852756e-03	7.806486e-03	1.705528e-04	9.461176e+01	1.659321e+02	
4.000000e+01	-1.635831e-02	-1.024945e-02	-2.152862e-01	-1.383299e-04	1.060195e-03	-1.156239e-03	1.665053e-03	-2.101965e-01	4.932746e-02	2.828359e-05	1.865989e-04	4.904906e-03	7.703229e-03	1.308517e-04	9.434035e+01	1.665214e+02	
4.100000e+01	-1.555395e-02	-1.116144e-02	-2.177870e-01	-1.394157e-04	1.084957e-03	-1.173544e-03	1.662273e-03	-2.131100e-01	4.750998e-02	1.920795e-05	1.717489e-04	4.962597e-03	7.603245e-03	8.785728e-05	9.407972e+01	1.671014e+02	
4.200000e+01	-1.479504e-02	-1.218866e-02	-2.200982e-01	-1.414263e-04	1.110346e-03	-1.189185e-03	1.659449e-03	-2.158318e-01	4.559330e-02	9.502739e-06	1.553549e-04	5.025749e-03	7.511152e-03	4.301217e-05	9.383982e+01	1.676657e+02	
4.300000e+01	-1.410512e-02	-1.321995e-02	-2.223149e-01	-1.438560e-04	1.136727e-03	-1.201966e-03	1.656605e-03	-2.184622e-01	4.355646e-02	-1.985312e-07	1.378577e-04	5.093914e-03	7.423600e-03	-8.896606e-07	9.362400e+01	1.682304e+02	
4.400000e+01	-1.348083e-02	-1.411962e-02	-2.245453e-01	-1.459388e-04	1.164299e-03	-1.211380e-03	1.652519e-03	-2.211209e-01	4.132638e-02	-9.138433e-06	1.198443e-04	5.165656e-03	7.331744e-03	-4.054456e-05	9.342897e+01	1.688278e+02	
4.500000e+01	-1.294653e-02	-1.471115e-02	-2.268624e-01	-1.467333e-04	1.192415e-03	-1.216270e-03	1.646142e-03	-2.238854e-01	3.885228e-02	-1.619055e-05	1.022544e-04	5.236613e-03	7.229204e-03	-7.110251e-05	9.325940e+01	1.694878e+02	
4.600000e+01	-1.248370e-02	-1.486759e-02	-2.293214e-01	-1.453444e-04	1.220941e-03	-1.215836e-03	1.636547e-03	-2.268098e-01	3.607609e-02	-2.066987e-05	8.573539e-05	5.305170e-03	7.111041e-03	-8.981367e-05	9.310949e+01	1.702386e+02	
4.700000e+01	-1.204812e-02	-1.458921e-02	-2.319560e-01	-1.415240e-04	1.250631e-03	-1.210281e-03	1.624155e-03	-2.299115e-01	3.300676e-02	-2.270648e-05	7.048622e-05	5.373827e-03	6.978818e-03	-9.756729e-05	9.296753e+01	1.710796e+02	
4.800000e+01	-1.160891e-02	-1.389785e-02	-2.347686e-01	-1.352230e-04	1.282019e-03	-1.199838e-03	1.609658e-03	-2.331733e-01	2.968626e-02	-2.248926e-05	5.671375e-05	5.444606e-03	6.836056e-03	-9.550963e-05	9.282597e+01	1.719981e+02	
4.900000e+01	-1.109348e-02	-1.285614e-02	-2.377530e-01	-1.264692e-04	1.316154e-03	-1.185181e-03	1.593218e-03	-2.365732e-01	2.612812e-02	-2.060286e-05	4.426880e-05	5.521737e-03	6.684120e-03	-8.643639e-05	9.266761e+01	1.729828e+02	
5.000000e+01	-1.043654e-02	-1.153286e-02	-2.408545e-01	-1.153748e-04	1.353749e-03	-1.166667e-03	1.575003e-03	-2.400399e-01	2.237609e-02	-1.763962e-05	3.306375e-05	5.608924e-03	6.525634e-03	-7.308540e-05	9.247834e+01	1.740133e+02	
5.100000e+01	-9.612304e-03	-1.000471e-02	-2.439718e-01	-1.022920e-04	1.394865e-03	-1.144487e-03	1.555519e-03	-2.434577e-01	1.852007e-02	-1.406876e-05	2.313319e-05	5.708099e-03	6.365531e-03	-5.757247e-05	9.225438e+01	1.750585e+02	
5.200000e+01	-8.566437e-03	-8.408833e-03	-2.470392e-01	-8.785911e-05	1.440352e-03	-1.119831e-03	1.535089e-03	-2.467550e-01	1.461847e-02	-1.080406e-05	1.402931e-05	5.823590e-03	6.206625e-03	-4.368266e-05	9.198490e+01	1.760903e+02	
5.300000e+01	-7.278865e-03	-6.837837e-03	-2.500079e-01	-7.262550e-05	1.491127e-03	-1.093695e-03	1.513340e-03	-2.498853e-01	1.068969e-02	-8.361004e-06	5.376816e-06	5.959568e-03	6.048348e-03	-3.341631e-05	9.166708e+01	1.770930e+02	
5.400000e+01	-5.805073e-03	-5.268080e-03	-2.528073e-01	-5.672353e-05	1.547455e-03	-1.065965e-03	1.488527e-03	-2.527852e-01	6.697769e-03	-6.304185e-06	-2.777013e-06	6.118146e-03	5.885164e-03	-2.492474e-05	9.131517e+01	1.780694e+02	
5.500000e+01	-4.187890e-03	-3.693607e-03	-2.553749e-01	-4.028866e-05	1.609856e-03	-1.036927e-03	1.458463e-03	-2.553963e-01	2.577228e-03	-4.387073e-06	-1.062941e-05	6.302387e-03	5.709702e-03	-1.717484e-05	9.093944e+01	1.789898e+02	
5.600000e+01	-2.479070e-03	-2.100652e-03	-2.576291e-01	-2.337226e-05	1.678202e-03	-1.006852e-03	1.421054e-03	-2.576353e-01	-1.724411e-03	-2.335870e-06	-1.832468e-05	6.513505e-03	5.515453e-03	-9.066071e-06	9.055133e+01	1.793957e+02	
5.700000e+01	-6.118265e-04	-5.224738e-04	-2.594753e-01	-5.830033e-06	1.751170e-03	-9.770892e-04	1.373586e-03	-2.593989e-01	-6.325863e-03	-6.402286e-07	-2.658573e-05	6.748857e-03	5.293681e-03	-2.467385e-06	9.013513e+01	1.785983e+02	
5.800000e+01	1.557805e-03	9.518041e-04	-2.608663e-01	1.234023e-05	1.827240e-03	-9.500388e-04	1.313247e-03	-2.606222e-01	-1.139015e-02	-4.239066e-07	-3.669320e-05	7.004334e-03	5.034051e-03	-1.624955e-06	8.965789e+01	1.774889e+02	
5.900000e+01	4.144556e-03	2.259329e-03	-2.617900e-01	3.112192e-05	1.904298e-03	-9.277166e-04	1.238119e-03	-2.612679e-01	-1.703680e-02	-2.582276e-06	-4.970167e-05	7.272960e-03	4.728666e-03	-9.862319e-06	8.909306e+01	1.762366e+02	
6.000000e+01	7.198543e-03	3.375077e-03	-2.622773e-01	5.048249e-05	1.981353e-03	-9.103496e-04	1.148568e-03	-2.613377e-01	-2.331941e-02	-7.559248e-06	-6.618817e-05	7.550954e-03	4.377204e-03	-2.880836e-05	8.842800e+01	1.748482e+02	
6.100000e+01	1.071892e-02	4.258071e-03	-2.624194e-01	7.005611e-05	2.060066e-03	-8.967482e-04	1.047217e-03	-2.608894e-01	-3.025776e-02	-1.559219e-05	-8.645277e-05	7.842710e-03	3.986776e-03	-5.935977e-05	8.766130e+01	1.733199e+02	
6.200000e+01	1.466614e-02	4.882555e-03	-2.622893e-01	8.937571e-05	2.142007e-03	-8.852929e-04	9.370179e-04	-2.599597e-01	-3.783869e-02	-2.655355e-05	-1.103410e-04	8.152434e-03	3.566272e-03	-1.010623e-04	8.680017e+01	1.716508e+02	
6.300000e+01	1.895444e-02	5.234353e-03	-2.619277e-01	1.078106e-04	2.228055e-03	-8.745262e-04	8.207741e-04	-2.585508e-01	-4.600906e-02	-3.997444e-05	-1.373015e-04	8.482506e-03	3.124797e-03	-1.521881e-04	8.586185e+01	1.698462e+02	
6.400000e+01	2.338228e-02	3.384868e-03	-2.614119e-01	1.079075e-04	2.323089e-03	-8.701010e-04	6.949859e-04	-2.563955e-01	-5.607370e-02	-6.339206e-05	-1.777120e-04	8.850627e-03	2.647794e-03	-2.415144e-04	8.488917e+01	1.676419e+02	
6.500000e+01	2.767656e-02	3.568418e-03	-2.606753e-01	1.240933e-04	2.412280e-03	-8.577664e-04	5.732545e-04	-2.539869e-01	-6.487108e-02	-7.667154e-05	-2.056960e-04	9.201391e-03	2.186619e-03	-2.924556e-04	8.394006e+01	1.656516e+02	
6.600000e+01	3.156302e-02	3.971103e-03	-2.597197e-01	1.405527e-04	2.498395e-03	-8.422173e-04	4.523231e-04	-2.510373e-01	-7.369407e-02	-8.712938e-05	-2.321521e-04	9.548222e-03	1.728663e-03	-3.329861e-04	8.307181e+01	1.636176e+02	
6.700000e+01	3.491464e-02	4.604715e-03	-2.584938e-01	1.571979e-04	2.578850e-03	-8.237177e-04	3.342859e-04	-2.475227e-01	-8.228348e-02	-9.440365e-05	-2.563536e-04	9.885131e-03	1.281370e-03	-3.618638e-04	8.230887e+01	1.615850e+02	
6.800000e+01	3.772261e-02	5.374780e-03	-2.568926e-01	1.744474e-04	2.655781e-03	-8.095941e-04	2.166349e-04	-2.434473e-01	-9.027861e-02	-1.001271e-04	-2.800784e-04	1.022622e-02	8.341635e-04	-3.855444e-04	8.164811e+01	1.596205e+02	
6.900000e+01	4.000178e-02	6.191528e-03	-2.548061e-01	1.897286e-04	2.716906e-03	-7.880204e-04	1.112958e-04	-2.388546e-01	-9.733845e-02	-1.029795e-04	-2.983992e-04	1.053059e-02	4.313769e-04	-3.991435e-04	8.108063e+01	1.577876e+02	
7.000000e+01	4.179052e-02	6.969936e-03	-2.521424e-01	2.034592e-04	2.765167e-03	-7.663854e-04	1.464315e-05	-2.337932e-01	-1.032617e-01	-1.046511e-04	-3.134713e-04	1.081507e-02	5.727203e-05	-4.093094e-04	8.059281e+01	1.561218e+02	
7.100000e+01	4.312892e-02	7.760281e-03	-2.487987e-01	2.162474e-04	2.799278e-03	-7.437911e-04	-7.477480e-05	-2.281534e-01	-1.081985e-01	-1.050753e-04	-3.257096e-04	1.108061e-02	-2.959873e-04	-4.159284e-04	8.017030e+01	1.545711e+02	
7.200000e+01	4.409730e-02	8.615134e-03	-2.446950e-01	2.288625e-04	2.818804e-03	-7.192538e-04	-1.593116e-04	-2.217875e-01	-1.123855e-01	-1.042521e-04	-3.357184e-04	1.133024e-02	-6.403562e-04	-4.190432e-04	7.979041e+01	1.530598e+02	
7.300000e+01	4.479052e-02	9.556493e-03	-2.397682e-01	2.418262e-04	2.823742e-03	-6.920472e-04	-2.411243e-04	-2.145517e-01	-1.160282e-01	-1.023332e-04	-3.440436e-04	1.156783e-02	-9.877972e-04	-4.192215e-04	7.942691e+01	1.515147e+02	
7.400000e+01	4.510724e-02	1.059339e-02	-2.339693e-01	2.547602e-04	2.814263e-03	-6.605030e-04	-3.187254e-04	-2.063851e-01	-1.190861e-01	-9.863472e-05	-3.498225e-04	1.179920e-02	-1.336301e-03	-4.135400e-04	7.909868e+01	1.499169e+02	
7.500000e+01	4.483019e-02	1.169038e-02	-2.273193e-01	2.664899e-04	2.791780e-03	-6.232707e-04	-3.886142e-04	-1.973328e-01	-1.214232e-01	-9.217321e-05	-3.516477e-04	1.203393e-02	-1.675116e-03	-3.973113e-04	7.885811e+01	1.482770e+02	
7.600000e+01	4.376499e-02	1.281873e-02	-2.198802e-01	2.761385e-04	2.758208e-03	-5.794743e-04	-4.478882e-04	-1.874620e-01	-1.229662e-01	-8.205842e-05	-3.482753e-04	1.228274e-02	-1.994518e-03	-3.654193e-04	7.876158e+01	1.465949e+02	
7.700000e+01	4.182495e-02	1.406778e-02	-2.116799e-01	2.846239e-04	2.713188e-03	-5.279294e-04	-4.939665e-04	-1.768645e-01	-1.235988e-01	-6.748012e-05	-3.382983e-04	1.254767e-02	-2.284444e-03	-3.120750e-04	7.884714e+01	1.448796e+02	
7.800000e+01	3.920493e-02	1.564771e-02	-2.027150e-01	2.953784e-04	2.652033e-03	-4.688033e-04	-5.246413e-04	-1.657706e-01	-1.230874e-01	-4.867666e-05	-3.211616e-04	1.280783e-02	-2.533723e-03	-2.350810e-04	7.908589e+01	1.431855e+02	
7.900000e+01	3.613871e-02	1.777133e-02	-1.929667e-01	3.120686e-04	2.569862e-03	-4.025872e-04	-5.381830e-04	-1.544253e-01	-1.212229e-01	-2.605804e-05	-2.968620e-04	1.303676e-02	-2.730171e-03	-1.321909e-04	7.943627e+01	1.415721e+02	
8.000000e+01	3.284173e-02	2.062749e-02	-1.823779e-01	3.378578e-04	2.462554e-03	-3.295044e-04	-5.338032e-04	-1.430131e-01	-1.178454e-01	7.665489e-08	-2.655734e-04	1.320717e-02	-2.862894e-03	4.111156e-07	7.985521e+01	1.400860e+02	
8.100000e+01	2.951434e-02	2.408665e-02	-1.709664e-01	3.719496e-04	2.331080e-03	-2.521808e-04	-5.151878e-04	-1.316147e-01	-1.130405e-01	2.813554e-05	-2.290423e-04	1.330835e-02	-2.941254e-03	1.606284e-04	8.029941e+01	1.387119e+02	
8.200000e+01	2.632081e-02	2.784101e-02	-1.588088e-01	4.108962e-04	2.179220e-03	-1.740927e-04	-4.878578e-04	-1.202665e-01	-1.070000e-01	5.581059e-05	-1.896315e-04	1.333957e-02	-2.986304e-03	3.416311e-04	8.072832e+01	1.374073e+02	
8.300000e+01	2.339225e-02	3.158571e-02	-1.460012e-01	4.507431e-04	2.011027e-03	-9.786738e-05	-4.565273e-04	-1.090098e-01	-9.990201e-02	8.082051e-05	-1.494185e-04	1.330051e-02	-3.019376e-03	5.345299e-04	8.109997e+01	1.361345e+02	
8.400000e+01	2.081312e-02	3.492162e-02	-1.327364e-01	5.150848e-04	1.883817e-03	-1.241788e-04	-4.763008e-04	-9.788917e-02	-9.203178e-02	7.191140e-05	-1.895896e-04	1.356998e-02	-3.431009e-03	5.180101e-04	8.137738e+01	1.348409e+02	
8.500000e+01	1.855700e-02	3.741054e-02	-1.193041e-01	5.428276e-04	1.705252e-03	-5.211767e-05	-4.494484e-04	-8.693674e-02	-8.378444e-02	8.303356e-05	-1.519054e-04	1.349074e-02	-3.555716e-03	6.569025e-04	8.155794e+01	1.334548e+02	
