Pct	FAxFem(N)	FAP(N)	FDV(N)	HipTorqAP(Nm)	HipTorqDV(Nm)	FemTorsion(Nm)	TKFlex(Nm)	FAxTib(N)	FMLTib(N)	TAnkFlex(Nm)	TibTorsion(Nm)	Rhip(m)	Rknee(m)	Rankle(m)	Fem-GRFang(deg)	Tib-GRFang(deg)	
0.000000e+00	-3.181014e-02	-3.788342e-02	-4.856696e-02	-5.883501e-04	1.244426e-04	-7.500773e-04	3.997152e-04	-5.076442e-02	2.817104e-02	1.490992e-04	1.241271e-04	1.795092e-03	5.765917e-03	2.150766e-03	1.173138e+02	1.370779e+02	
1.000000e+00	-3.282066e-02	-4.094476e-02	-4.845655e-02	-6.188957e-04	9.078428e-05	-8.004839e-04	4.298762e-04	-5.016888e-02	3.013830e-02	1.546319e-04	1.351741e-04	1.271022e-03	6.018464e-03	2.164917e-03	1.173552e+02	1.346189e+02	
2.000000e+00	-3.377340e-02	-4.409304e-02	-4.844111e-02	-6.474818e-04	5.730842e-05	-8.538622e-04	4.615417e-04	-4.953016e-02	3.215505e-02	1.593251e-04	1.469064e-04	7.776127e-04	6.262618e-03	2.161867e-03	1.172755e+02	1.322271e+02	
3.000000e+00	-3.470971e-02	-4.727944e-02	-4.853242e-02	-6.734768e-04	2.387534e-05	-9.091591e-04	4.949339e-04	-4.886764e-02	3.423615e-02	1.630537e-04	1.592135e-04	3.136201e-04	6.501320e-03	2.141830e-03	1.171253e+02	1.299346e+02	
4.000000e+00	-3.566930e-02	-5.046895e-02	-4.872577e-02	-6.965670e-04	-9.839294e-06	-9.654617e-04	5.302893e-04	-4.818460e-02	3.639704e-02	1.657561e-04	1.719792e-04	-1.250236e-04	6.738151e-03	2.106190e-03	1.169514e+02	1.277532e+02	
5.000000e+00	-3.670211e-02	-5.361444e-02	-4.900014e-02	-7.164663e-04	-4.452290e-05	-1.021577e-03	5.680304e-04	-4.746695e-02	3.866454e-02	1.674437e-04	1.850884e-04	-5.471045e-04	6.980048e-03	2.057575e-03	1.168080e+02	1.256817e+02	
6.000000e+00	-3.784286e-02	-5.668256e-02	-4.936010e-02	-7.330767e-04	-8.037986e-05	-1.076580e-03	6.083350e-04	-4.672265e-02	4.105479e-02	1.681604e-04	1.984147e-04	-9.551845e-04	7.229077e-03	1.998314e-03	1.167246e+02	1.237261e+02	
7.000000e+00	-3.910748e-02	-5.966865e-02	-4.982151e-02	-7.466165e-04	-1.172448e-04	-1.130050e-03	6.511108e-04	-4.596938e-02	4.357057e-02	1.679802e-04	2.118426e-04	-1.347381e-03	7.482586e-03	1.930434e-03	1.167068e+02	1.218895e+02	
8.000000e+00	-4.051485e-02	-6.256036e-02	-5.038304e-02	-7.572625e-04	-1.552271e-04	-1.181400e-03	6.963453e-04	-4.520599e-02	4.622037e-02	1.670239e-04	2.252829e-04	-1.725416e-03	7.740179e-03	1.856544e-03	1.167655e+02	1.201645e+02	
9.000000e+00	-4.207627e-02	-6.533737e-02	-5.105217e-02	-7.651520e-04	-1.942239e-04	-1.229975e-03	7.439045e-04	-4.444010e-02	4.900830e-02	1.654376e-04	2.386537e-04	-2.088826e-03	8.000496e-03	1.779237e-03	1.169055e+02	1.185511e+02	
1.000000e+01	-4.380248e-02	-6.798705e-02	-5.186322e-02	-7.710075e-04	-2.335913e-04	-1.275456e-03	7.935190e-04	-4.371942e-02	5.193326e-02	1.635196e-04	2.519070e-04	-2.431306e-03	8.259243e-03	1.701974e-03	1.171237e+02	1.170681e+02	
1.100000e+01	-4.571280e-02	-7.048585e-02	-5.283996e-02	-7.758821e-04	-2.727850e-04	-1.317466e-03	8.449679e-04	-4.309335e-02	5.499713e-02	1.617178e-04	2.650246e-04	-2.748545e-03	8.513783e-03	1.629447e-03	1.174256e+02	1.157346e+02	
1.200000e+01	-4.782682e-02	-7.279635e-02	-5.398605e-02	-7.808145e-04	-3.114777e-04	-1.355464e-03	8.980041e-04	-4.259822e-02	5.820044e-02	1.605407e-04	2.780013e-04	-3.039536e-03	8.763118e-03	1.566627e-03	1.178213e+02	1.145630e+02	
1.300000e+01	-5.014098e-02	-7.489888e-02	-5.531645e-02	-7.869158e-04	-3.489298e-04	-1.389359e-03	9.520575e-04	-4.229218e-02	6.152560e-02	1.604463e-04	2.908212e-04	-3.299453e-03	9.002583e-03	1.517168e-03	1.183027e+02	1.135727e+02	
1.400000e+01	-5.258670e-02	-7.678035e-02	-5.689714e-02	-7.939127e-04	-3.838755e-04	-1.419474e-03	1.006468e-03	-4.225388e-02	6.494040e-02	1.613582e-04	3.034752e-04	-3.519296e-03	9.227100e-03	1.479301e-03	1.188230e+02	1.127913e+02	
1.500000e+01	-5.505177e-02	-7.840191e-02	-5.882817e-02	-7.998732e-04	-4.150773e-04	-1.445874e-03	1.060877e-03	-4.255163e-02	6.841645e-02	1.627048e-04	3.159767e-04	-3.692194e-03	9.436706e-03	1.447291e-03	1.193207e+02	1.122412e+02	
1.600000e+01	-5.741055e-02	-7.972185e-02	-6.121992e-02	-8.026369e-04	-4.412251e-04	-1.468591e-03	1.114969e-03	-4.325793e-02	7.192080e-02	1.638048e-04	3.283089e-04	-3.811686e-03	9.632068e-03	1.415088e-03	1.197333e+02	1.119440e+02	
1.700000e+01	-5.951844e-02	-8.071699e-02	-6.420279e-02	-8.000611e-04	-4.608351e-04	-1.487999e-03	1.168469e-03	-4.446220e-02	7.541589e-02	1.638466e-04	3.404236e-04	-3.870012e-03	9.812598e-03	1.375955e-03	1.199885e+02	1.119246e+02	
1.800000e+01	-6.127734e-02	-8.136483e-02	-6.784100e-02	-7.906275e-04	-4.735959e-04	-1.504162e-03	1.221639e-03	-4.619155e-02	7.889014e-02	1.621870e-04	3.522513e-04	-3.869792e-03	9.982114e-03	1.325244e-03	1.200465e+02	1.121749e+02	
1.900000e+01	-6.266525e-02	-8.163918e-02	-7.210848e-02	-7.738601e-04	-4.806332e-04	-1.516636e-03	1.275358e-03	-4.839409e-02	8.236856e-02	1.585215e-04	3.637065e-04	-3.824739e-03	1.014892e-02	1.261468e-03	1.199122e+02	1.126504e+02	
2.000000e+01	-6.365760e-02	-8.152998e-02	-7.698799e-02	-7.495877e-04	-4.830079e-04	-1.525173e-03	1.330609e-03	-5.102696e-02	8.588184e-02	1.525353e-04	3.747096e-04	-3.745871e-03	1.031927e-02	1.182957e-03	1.195830e+02	1.133115e+02	
2.100000e+01	-6.423324e-02	-8.103001e-02	-8.244821e-02	-7.178568e-04	-4.819529e-04	-1.529405e-03	1.388493e-03	-5.403087e-02	8.946665e-02	1.439595e-04	3.851976e-04	-3.644317e-03	1.049918e-02	1.088559e-03	1.190586e+02	1.141143e+02	
2.200000e+01	-6.438061e-02	-8.011588e-02	-8.841272e-02	-6.793456e-04	-4.786337e-04	-1.528549e-03	1.449614e-03	-5.733257e-02	9.313779e-02	1.328693e-04	3.951078e-04	-3.530432e-03	1.069245e-02	9.800519e-04	1.183513e+02	1.150171e+02	
2.300000e+01	-6.408248e-02	-7.879506e-02	-9.478508e-02	-6.360731e-04	-4.730743e-04	-1.522509e-03	1.513086e-03	-6.092960e-02	9.684193e-02	1.198411e-04	4.043405e-04	-3.405313e-03	1.089159e-02	8.626475e-04	1.174699e+02	1.160138e+02	
2.400000e+01	-6.332969e-02	-7.710684e-02	-1.014744e-01	-5.902113e-04	-4.650040e-04	-1.511871e-03	1.577670e-03	-6.485014e-02	1.005095e-01	1.054898e-04	4.127856e-04	-3.267460e-03	1.108586e-02	7.412485e-04	1.164234e+02	1.171090e+02	
2.500000e+01	-6.213868e-02	-7.508674e-02	-1.083678e-01	-5.436827e-04	-4.543805e-04	-1.497226e-03	1.641947e-03	-6.910655e-02	1.040628e-01	9.048836e-05	4.203242e-04	-3.117552e-03	1.126557e-02	6.208501e-04	1.152355e+02	1.183039e+02	
2.600000e+01	-6.053684e-02	-7.275532e-02	-1.153609e-01	-4.978737e-04	-4.412448e-04	-1.479067e-03	1.704506e-03	-7.371017e-02	1.074228e-01	7.546329e-05	4.268535e-04	-2.957037e-03	1.142288e-02	5.057231e-04	1.139346e+02	1.196022e+02	
2.700000e+01	-5.852856e-02	-7.008917e-02	-1.224327e-01	-4.531126e-04	-4.256280e-04	-1.457540e-03	1.764857e-03	-7.870457e-02	1.105484e-01	6.078811e-05	4.324146e-04	-2.786717e-03	1.155506e-02	3.979984e-04	1.125324e+02	1.210178e+02	
2.800000e+01	-5.611380e-02	-6.703962e-02	-1.295771e-01	-4.094557e-04	-4.076333e-04	-1.432511e-03	1.822741e-03	-8.413769e-02	1.134012e-01	4.682189e-05	4.370822e-04	-2.607827e-03	1.166095e-02	2.995421e-04	1.110380e+02	1.225659e+02	
2.900000e+01	-5.330012e-02	-6.352654e-02	-1.367650e-01	-3.669270e-04	-3.875194e-04	-1.403384e-03	1.877749e-03	-9.003661e-02	1.159266e-01	3.405696e-05	4.409347e-04	-2.422887e-03	1.174025e-02	2.129343e-04	1.094661e+02	1.242591e+02	
3.000000e+01	-5.007990e-02	-5.946813e-02	-1.439675e-01	-3.255149e-04	-3.652869e-04	-1.369542e-03	1.929265e-03	-9.643106e-02	1.180496e-01	2.293138e-05	4.440537e-04	-2.232549e-03	1.179122e-02	1.401513e-04	1.078230e+02	1.261119e+02	
3.100000e+01	-4.643510e-02	-5.483350e-02	-1.511427e-01	-2.853247e-04	-3.404701e-04	-1.330759e-03	1.976651e-03	-1.032939e-01	1.197110e-01	1.365550e-05	4.467429e-04	-2.034441e-03	1.181126e-02	8.159695e-05	1.061092e+02	1.281135e+02	
3.200000e+01	-4.237397e-02	-4.960463e-02	-1.582233e-01	-2.466069e-04	-3.126499e-04	-1.286824e-03	2.019366e-03	-1.105417e-01	1.208747e-01	6.519379e-06	4.495053e-04	-1.826808e-03	1.179912e-02	3.809261e-05	1.043350e+02	1.302327e+02	
3.300000e+01	-3.791707e-02	-4.375391e-02	-1.651444e-01	-2.095941e-04	-2.813338e-04	-1.237510e-03	2.056909e-03	-1.180872e-01	1.215146e-01	1.905757e-06	4.529483e-04	-1.607627e-03	1.175380e-02	1.089008e-05	1.025135e+02	1.324376e+02	
3.400000e+01	-3.307850e-02	-3.725350e-02	-1.718658e-01	-1.743705e-04	-2.458087e-04	-1.182809e-03	2.088852e-03	-1.258686e-01	1.216105e-01	1.525803e-07	4.577295e-04	-1.373686e-03	1.167342e-02	8.526855e-07	1.006528e+02	1.347012e+02	
3.500000e+01	-2.788499e-02	-3.009070e-02	-1.783364e-01	-1.408300e-04	-2.059077e-04	-1.122863e-03	2.114839e-03	-1.338145e-01	1.211409e-01	1.539301e-06	4.643837e-04	-1.125214e-03	1.155686e-02	8.411747e-06	9.876502e+01	1.369913e+02	
3.600000e+01	-2.237788e-02	-2.225487e-02	-1.844939e-01	-1.087605e-04	-1.619793e-04	-1.057762e-03	2.134630e-03	-1.418323e-01	1.200931e-01	6.349144e-06	4.734151e-04	-8.653952e-04	1.140454e-02	3.392112e-05	9.686655e+01	1.392669e+02	
3.700000e+01	-1.659099e-02	-1.373713e-02	-1.903044e-01	-7.785558e-05	-1.143978e-04	-9.877503e-04	2.148280e-03	-1.498482e-01	1.184758e-01	1.477816e-05	4.853940e-04	-5.973166e-04	1.121703e-02	7.716267e-05	9.496969e+01	1.414825e+02	
3.800000e+01	-1.056608e-02	-4.523150e-03	-1.957515e-01	-4.781249e-05	-6.378555e-05	-9.130988e-04	2.156255e-03	-1.577914e-01	1.163279e-01	2.702582e-05	5.009821e-04	-3.252894e-04	1.099633e-02	1.378245e-04	9.308887e+01	1.435808e+02	
3.900000e+01	-4.420527e-03	5.396377e-03	-2.007885e-01	-1.866762e-05	-1.187837e-05	-8.334170e-04	2.159871e-03	-1.655320e-01	1.137310e-01	4.354831e-05	5.206216e-04	-5.912297e-05	1.075046e-02	2.167557e-04	9.126079e+01	1.454784e+02	
4.000000e+01	1.677521e-03	1.598411e-02	-2.053641e-01	9.159404e-06	3.917833e-05	-7.479975e-04	2.160894e-03	-1.729260e-01	1.107872e-01	6.494498e-05	5.443925e-04	1.901934e-04	1.049018e-02	3.152791e-04	8.953343e+01	1.470852e+02	
4.100000e+01	7.569603e-03	2.715361e-02	-2.094556e-01	3.512038e-05	8.791096e-05	-6.564495e-04	2.160740e-03	-1.798680e-01	1.075940e-01	9.177901e-05	5.722474e-04	4.159615e-04	1.022380e-02	4.342636e-04	8.794746e+01	1.483280e+02	
4.200000e+01	1.308302e-02	3.878958e-02	-2.130466e-01	5.856832e-05	1.333230e-04	-5.584520e-04	2.160412e-03	-1.862581e-01	1.042495e-01	1.247323e-04	6.040868e-04	6.145507e-04	9.958392e-03	5.749518e-04	8.654265e+01	1.491547e+02	
4.300000e+01	1.811227e-02	5.079445e-02	-2.161178e-01	7.924724e-05	1.753394e-04	-4.538620e-04	2.159400e-03	-1.920439e-01	1.007675e-01	1.642564e-04	6.397712e-04	7.871780e-04	9.694525e-03	7.374213e-04	8.533592e+01	1.495614e+02	
4.400000e+01	2.270669e-02	6.310036e-02	-2.186573e-01	9.762303e-05	2.148815e-04	-3.429335e-04	2.155343e-03	-1.972656e-01	9.702010e-02	2.099676e-04	6.789622e-04	9.395371e-04	9.423912e-03	9.180516e-04	8.430223e+01	1.496001e+02	
4.500000e+01	2.695191e-02	7.562278e-02	-2.206532e-01	1.142141e-04	2.527442e-04	-2.259018e-04	2.145881e-03	-2.019654e-01	9.286677e-02	2.610296e-04	7.210828e-04	1.076404e-03	9.139019e-03	1.111690e-03	8.340883e+01	1.493327e+02	
4.600000e+01	3.093435e-02	8.826293e-02	-2.220785e-01	1.293149e-04	2.893303e-04	-1.028283e-04	2.128850e-03	-2.061554e-01	8.818028e-02	3.163660e-04	7.653996e-04	1.200694e-03	8.834532e-03	1.312890e-03	8.262435e+01	1.488179e+02	
4.700000e+01	3.476744e-02	1.008978e-01	-2.229353e-01	1.432060e-04	3.254335e-04	2.616963e-05	2.102806e-03	-2.098614e-01	8.286797e-02	3.747164e-04	8.110327e-04	1.316678e-03	8.507790e-03	1.516073e-03	8.191362e+01	1.481121e+02	
4.800000e+01	3.859448e-02	1.133753e-01	-2.232739e-01	1.566927e-04	3.632835e-04	1.606961e-04	2.067458e-03	-2.131389e-01	7.689334e-02	4.349941e-04	8.570701e-04	1.433824e-03	8.159939e-03	1.716855e-03	8.123825e+01	1.472699e+02	
4.900000e+01	4.254996e-02	1.255477e-01	-2.231431e-01	1.708923e-04	4.054732e-04	3.001831e-04	2.022574e-03	-2.160362e-01	7.022621e-02	4.963871e-04	9.027032e-04	1.562223e-03	7.792653e-03	1.912500e-03	8.056447e+01	1.463412e+02	
5.000000e+01	4.676250e-02	1.372710e-01	-2.225967e-01	1.872470e-04	4.548077e-04	4.437603e-04	1.967884e-03	-2.186046e-01	6.283336e-02	5.582733e-04	9.472339e-04	1.711942e-03	7.407312e-03	2.101397e-03	7.986208e+01	1.453711e+02	
5.100000e+01	5.134505e-02	1.484198e-01	-2.217242e-01	2.074862e-04	5.141080e-04	5.901073e-04	1.903128e-03	-2.209237e-01	5.468678e-02	6.201147e-04	9.901258e-04	1.892120e-03	7.004262e-03	2.282267e-03	7.910735e+01	1.443986e+02	
5.200000e+01	5.624351e-02	1.589497e-01	-2.206131e-01	2.329271e-04	5.843466e-04	7.377730e-04	1.828052e-03	-2.230061e-01	4.584476e-02	6.815924e-04	1.031296e-03	2.104494e-03	6.583635e-03	2.454720e-03	7.831344e+01	1.434315e+02	
5.300000e+01	6.132491e-02	1.688553e-01	-2.193200e-01	2.645761e-04	6.651836e-04	8.853329e-04	1.742785e-03	-2.248013e-01	3.641981e-02	7.424269e-04	1.070781e-03	2.346299e-03	6.147319e-03	2.618759e-03	7.750757e+01	1.424612e+02	
5.400000e+01	6.644726e-02	1.781486e-01	-2.178938e-01	3.032626e-04	7.555847e-04	1.031303e-03	1.647918e-03	-2.262486e-01	2.654229e-02	8.022183e-04	1.108541e-03	2.612778e-03	5.698427e-03	2.774035e-03	7.671640e+01	1.414770e+02	
5.500000e+01	7.148110e-02	1.868436e-01	-2.163758e-01	3.494543e-04	8.538576e-04	1.174078e-03	1.544486e-03	-2.272900e-01	1.634879e-02	8.603797e-04	1.144384e-03	2.897538e-03	5.241161e-03	2.919670e-03	7.596183e+01	1.404709e+02	
5.600000e+01	7.639497e-02	1.949020e-01	-2.147579e-01	4.023156e-04	9.574190e-04	1.311636e-03	1.433744e-03	-2.278635e-01	5.946898e-03	9.158537e-04	1.177813e-03	3.192391e-03	4.780635e-03	3.053797e-03	7.524248e+01	1.394450e+02	
5.700000e+01	8.118993e-02	2.022424e-01	-2.129927e-01	4.599493e-04	1.063160e-03	1.441684e-03	1.316990e-03	-2.278966e-01	-4.563300e-03	9.673672e-04	1.208073e-03	3.488872e-03	4.321842e-03	3.174518e-03	7.454789e+01	1.384060e+02	
5.800000e+01	8.585744e-02	2.087509e-01	-2.110275e-01	5.197502e-04	1.167733e-03	1.561702e-03	1.195697e-03	-2.273259e-01	-1.506813e-02	1.013549e-03	1.234185e-03	3.779070e-03	3.869569e-03	3.280091e-03	7.386776e+01	1.373650e+02	
5.900000e+01	9.034186e-02	2.142748e-01	-2.087804e-01	5.785996e-04	1.267479e-03	1.669088e-03	1.071500e-03	-2.260636e-01	-2.541917e-02	1.053013e-03	1.254953e-03	4.055759e-03	3.428652e-03	3.369499e-03	7.319704e+01	1.363337e+02	
6.000000e+01	9.448035e-02	2.186129e-01	-2.061968e-01	6.351475e-04	1.360669e-03	1.762212e-03	9.462069e-04	-2.240269e-01	-3.543431e-02	1.084952e-03	1.268920e-03	4.319361e-03	3.003676e-03	3.444115e-03	7.254710e+01	1.353294e+02	
6.100000e+01	9.807319e-02	2.215742e-01	-2.033245e-01	6.898319e-04	1.447493e-03	1.840131e-03	8.220426e-04	-2.212255e-01	-4.492724e-02	1.109007e-03	1.274785e-03	4.576132e-03	2.598821e-03	3.506036e-03	7.193776e+01	1.343779e+02	
6.200000e+01	1.009450e-01	2.230461e-01	-2.002937e-01	7.437259e-04	1.528809e-03	1.902336e-03	7.015202e-04	-2.177624e-01	-5.373067e-02	1.125128e-03	1.271852e-03	4.833143e-03	2.217770e-03	3.556955e-03	7.138999e+01	1.335059e+02	
6.300000e+01	1.029450e-01	2.230118e-01	-1.972549e-01	7.983158e-04	1.605784e-03	1.948973e-03	5.869866e-04	-2.137735e-01	-6.170956e-02	1.133645e-03	1.260128e-03	5.097305e-03	1.863295e-03	3.598574e-03	7.092642e+01	1.327336e+02	
6.400000e+01	1.040708e-01	2.216960e-01	-1.941445e-01	8.537056e-04	1.677791e-03	1.981509e-03	4.787852e-04	-2.092465e-01	-6.883852e-02	1.135435e-03	1.241043e-03	5.368499e-03	1.531989e-03	3.633098e-03	7.054907e+01	1.320312e+02	
6.500000e+01	1.044853e-01	2.195295e-01	-1.906788e-01	9.085827e-04	1.742458e-03	2.002898e-03	3.751477e-04	-2.040097e-01	-7.520397e-02	1.131929e-03	1.217126e-03	5.639384e-03	1.214148e-03	3.663436e-03	7.023510e+01	1.313203e+02	
6.600000e+01	1.043839e-01	2.169479e-01	-1.865415e-01	9.619251e-04	1.797464e-03	2.016760e-03	2.738016e-04	-1.978539e-01	-8.091702e-02	1.124794e-03	1.190886e-03	5.901735e-03	8.989911e-04	3.693110e-03	6.995671e+01	1.305135e+02	
6.700000e+01	1.039703e-01	2.143534e-01	-1.813989e-01	1.013097e-03	1.840542e-03	2.027038e-03	1.722392e-04	-1.905357e-01	-8.609011e-02	1.115774e-03	1.164603e-03	6.146666e-03	5.752095e-04	3.726234e-03	6.968273e+01	1.295174e+02	
6.800000e+01	1.033729e-01	2.120014e-01	-1.751037e-01	1.062275e-03	1.870608e-03	2.036930e-03	6.928100e-05	-1.819512e-01	-9.077991e-02	1.106169e-03	1.139688e-03	6.367923e-03	2.358464e-04	3.765620e-03	6.939633e+01	1.282723e+02	
6.900000e+01	1.025735e-01	2.099486e-01	-1.677511e-01	1.110388e-03	1.887890e-03	2.048202e-03	-3.419671e-05	-1.721865e-01	-9.493982e-02	1.096508e-03	1.116437e-03	6.563244e-03	-1.188847e-04	3.812005e-03	6.910871e+01	1.267702e+02	
7.000000e+01	1.015182e-01	2.035649e-01	-1.652583e-01	1.124006e-03	1.929014e-03	2.038337e-03	-1.094605e-04	-1.652037e-01	-1.016070e-01	1.118603e-03	1.118413e-03	6.860741e-03	-3.893077e-04	3.978428e-03	6.883471e+01	1.259844e+02	
7.100000e+01	1.001421e-01	2.022948e-01	-1.559047e-01	1.171532e-03	1.920602e-03	2.055884e-03	-2.121733e-04	-1.531039e-01	-1.043739e-01	1.110125e-03	1.101155e-03	7.001023e-03	-7.734187e-04	4.046653e-03	6.858996e+01	1.239244e+02	
7.200000e+01	9.837163e-02	2.011107e-01	-1.457401e-01	1.218761e-03	1.898726e-03	2.076124e-03	-3.108979e-04	-1.401312e-01	-1.062092e-01	1.101155e-03	1.084619e-03	7.107661e-03	-1.163810e-03	4.122047e-03	6.839273e+01	1.216390e+02	
7.300000e+01	9.609003e-02	1.997250e-01	-1.350784e-01	1.263996e-03	1.863638e-03	2.096749e-03	-4.012119e-04	-1.267116e-01	-1.068814e-01	1.090493e-03	1.067849e-03	7.180089e-03	-1.545760e-03	4.201371e-03	6.827154e+01	1.192214e+02	
7.400000e+01	9.316847e-02	1.978974e-01	-1.242618e-01	1.305495e-03	1.815588e-03	2.115275e-03	-4.786101e-04	-1.133183e-01	-1.062089e-01	1.077214e-03	1.050318e-03	7.217185e-03	-1.902534e-03	4.282059e-03	6.826245e+01	1.167729e+02	
7.500000e+01	8.951098e-02	1.954835e-01	-1.136686e-01	1.341980e-03	1.755397e-03	2.129461e-03	-5.391628e-04	-1.004546e-01	-1.041232e-01	1.060832e-03	1.032000e-03	7.217897e-03	-2.216946e-03	4.361963e-03	6.840437e+01	1.143968e+02	
7.600000e+01	8.508997e-02	1.924483e-01	-1.036282e-01	1.372481e-03	1.684164e-03	2.137583e-03	-5.802171e-04	-8.855809e-02	-1.006806e-01	1.041375e-03	1.013347e-03	7.180291e-03	-2.473706e-03	4.439811e-03	6.872938e+01	1.121827e+02	
7.700000e+01	8.004185e-02	1.888707e-01	-9.425671e-02	1.395295e-03	1.602803e-03	2.138964e-03	-6.018703e-04	-7.783561e-02	-9.608664e-02	1.019565e-03	9.952542e-04	7.099896e-03	-2.666090e-03	4.516340e-03	6.923358e+01	1.101688e+02	
7.800000e+01	7.455665e-02	1.848857e-01	-8.566468e-02	1.425520e-03	1.513744e-03	2.115879e-03	-6.058677e-04	-6.844419e-02	-9.062298e-02	9.799817e-04	9.588522e-04	6.976457e-03	-2.792289e-03	4.516484e-03	6.990291e+01	1.083875e+02	
7.900000e+01	6.883247e-02	1.806588e-01	-7.799246e-02	1.428419e-03	1.418764e-03	2.105203e-03	-5.929134e-04	-6.052105e-02	-8.460458e-02	9.578346e-04	9.454357e-04	6.805713e-03	-2.844164e-03	4.594666e-03	7.072005e+01	1.068769e+02	
8.000000e+01	6.304248e-02	1.763637e-01	-7.134077e-02	1.421233e-03	1.321813e-03	2.089510e-03	-5.662738e-04	-5.411605e-02	-7.832824e-02	9.370956e-04	9.352199e-04	6.595226e-03	-2.825441e-03	4.675668e-03	7.166623e+01	1.056651e+02	
8.100000e+01	5.727725e-02	1.722136e-01	-6.570697e-02	1.406569e-03	1.225486e-03	2.071049e-03	-5.291500e-04	-4.910133e-02	-7.202187e-02	9.186310e-04	9.282311e-04	6.349102e-03	-2.741466e-03	4.759323e-03	7.273771e+01	1.047374e+02	
8.200000e+01	5.162195e-02	1.684124e-01	-6.104507e-02	1.388038e-03	1.132204e-03	2.052311e-03	-4.849690e-04	-4.529323e-02	-6.587753e-02	9.027906e-04	9.240752e-04	6.073262e-03	-2.601425e-03	4.842664e-03	7.392442e+01	1.040612e+02	
8.300000e+01	4.616250e-02	1.651066e-01	-5.726164e-02	1.368900e-03	1.043827e-03	2.035360e-03	-4.369609e-04	-4.248432e-02	-6.004127e-02	8.894317e-04	9.220993e-04	5.775022e-03	-2.417506e-03	4.920821e-03	7.520297e+01	1.035944e+02	
8.400000e+01	4.095961e-02	1.623689e-01	-5.421658e-02	1.351754e-03	9.613509e-04	2.021651e-03	-3.878785e-04	-4.045034e-02	-5.459760e-02	8.779822e-04	9.214685e-04	5.461798e-03	-2.203684e-03	4.988149e-03	7.654353e+01	1.032861e+02	
8.500000e+01	3.608866e-02	1.601754e-01	-5.188621e-02	1.338485e-03	8.868275e-04	2.011685e-03	-3.399274e-04	-3.909859e-02	-4.965753e-02	8.676194e-04	9.215653e-04	5.150170e-03	-1.974097e-03	5.038620e-03	7.790219e+01	1.031242e+02	
8.600000e+01	3.162569e-02	1.584520e-01	-5.032479e-02	1.330696e-03	8.228870e-04	2.005366e-03	-2.949210e-04	-3.842182e-02	-4.534901e-02	8.573086e-04	9.218760e-04	4.862450e-03	-1.742692e-03	5.065847e-03	7.922947e+01	1.031226e+02	
