Pct	FAxFem(N)	FAP(N)	FDV(N)	HipTorqAP(Nm)	HipTorqDV(Nm)	FemTorsion(Nm)	TKFlex(Nm)	FAxTib(N)	FMLTib(N)	TAnkFlex(Nm)	TibTorsion(Nm)	Rhip(m)	Rknee(m)	Rankle(m)	Fem-GRFang(deg)	Tib-GRFang(deg)	
0.000000e+00	-1.616616e-02	-3.602068e-02	-2.042020e-02	-5.386775e-04	4.382043e-05	-5.827891e-04	1.564868e-04	-2.198876e-02	1.395793e-02	1.472860e-04	1.238114e-04	9.858323e-04	3.520499e-03	3.313507e-03	1.113271e+02	1.196489e+02	
1.000000e+00	-1.616794e-02	-3.924039e-02	-1.918667e-02	-5.735815e-04	2.263578e-05	-6.257372e-04	1.657980e-04	-2.057450e-02	1.436037e-02	1.519131e-04	1.306466e-04	4.859950e-04	3.559719e-03	3.261607e-03	1.103119e+02	1.162149e+02	
2.000000e+00	-1.609824e-02	-4.240735e-02	-1.807611e-02	-6.060374e-04	4.623731e-06	-6.683162e-04	1.732242e-04	-1.925706e-02	1.466508e-02	1.556176e-04	1.370070e-04	9.469209e-05	3.547560e-03	3.186984e-03	1.092497e+02	1.132271e+02	
3.000000e+00	-1.596361e-02	-4.547077e-02	-1.713850e-02	-6.353323e-04	-9.685345e-06	-7.096792e-04	1.787055e-04	-1.809171e-02	1.487465e-02	1.582066e-04	1.427115e-04	-1.893578e-04	3.493866e-03	3.093092e-03	1.081861e+02	1.107145e+02	
4.000000e+00	-1.577817e-02	-4.836032e-02	-1.638831e-02	-6.606248e-04	-2.038512e-05	-7.486516e-04	1.824666e-04	-1.709893e-02	1.500513e-02	1.595211e-04	1.475974e-04	-3.814304e-04	3.414173e-03	2.984835e-03	1.071713e+02	1.086594e+02	
5.000000e+00	-1.556317e-02	-5.101343e-02	-1.583350e-02	-6.813058e-04	-2.779104e-05	-7.842339e-04	1.848977e-04	-1.629233e-02	1.508218e-02	1.595060e-04	1.515721e-04	-4.995221e-04	3.323391e-03	2.866994e-03	1.062445e+02	1.070282e+02	
6.000000e+00	-1.534577e-02	-5.339903e-02	-1.549383e-02	-6.972767e-04	-3.219150e-05	-8.160215e-04	1.864879e-04	-1.569611e-02	1.513881e-02	1.582478e-04	1.546552e-04	-5.581030e-04	3.233134e-03	2.743537e-03	1.054293e+02	1.057907e+02	
7.000000e+00	-1.516902e-02	-5.549408e-02	-1.538268e-02	-7.086944e-04	-3.420529e-05	-8.438126e-04	1.880039e-04	-1.532627e-02	1.522600e-02	1.559628e-04	1.569856e-04	-5.743868e-04	3.157025e-03	2.618979e-03	1.047572e+02	1.049137e+02	
8.000000e+00	-1.508979e-02	-5.726869e-02	-1.549975e-02	-7.157776e-04	-3.481481e-05	-8.673527e-04	1.904465e-04	-1.518179e-02	1.540965e-02	1.529662e-04	1.587990e-04	-5.687019e-04	3.110955e-03	2.498712e-03	1.042701e+02	1.043590e+02	
9.000000e+00	-1.516414e-02	-5.870651e-02	-1.585853e-02	-7.189711e-04	-3.482755e-05	-8.867253e-04	1.947846e-04	-1.527138e-02	1.575529e-02	1.496390e-04	1.604012e-04	-5.557031e-04	3.107954e-03	2.387617e-03	1.040021e+02	1.041032e+02	
1.000000e+01	-1.543734e-02	-5.981342e-02	-1.649437e-02	-7.189582e-04	-3.466358e-05	-9.024945e-04	2.018270e-04	-1.562237e-02	1.631923e-02	1.463720e-04	1.621308e-04	-5.421467e-04	3.156623e-03	2.289294e-03	1.039718e+02	1.041427e+02	
1.100000e+01	-1.593198e-02	-6.059899e-02	-1.743132e-02	-7.162554e-04	-3.458319e-05	-9.152021e-04	2.121010e-04	-1.624833e-02	1.713682e-02	1.434560e-04	1.642679e-04	-5.317398e-04	3.261195e-03	2.205732e-03	1.041798e+02	1.044674e+02	
1.200000e+01	-1.664726e-02	-6.106695e-02	-1.867377e-02	-7.110276e-04	-3.477111e-05	-9.251329e-04	2.258378e-04	-1.714209e-02	1.822059e-02	1.410413e-04	1.669916e-04	-5.268946e-04	3.422172e-03	2.137232e-03	1.046113e+02	1.050557e+02	
1.300000e+01	-1.756782e-02	-6.122791e-02	-2.023483e-02	-7.033309e-04	-3.516503e-05	-9.326637e-04	2.430920e-04	-1.830549e-02	1.957002e-02	1.391800e-04	1.704169e-04	-5.261460e-04	3.637189e-03	2.082437e-03	1.052395e+02	1.058959e+02	
1.400000e+01	-1.866380e-02	-6.110480e-02	-2.213393e-02	-6.931654e-04	-3.551430e-05	-9.383175e-04	2.637679e-04	-1.974758e-02	2.117265e-02	1.378199e-04	1.745938e-04	-5.252282e-04	3.900916e-03	2.038247e-03	1.060230e+02	1.069808e+02	
1.500000e+01	-1.990733e-02	-6.071169e-02	-2.436855e-02	-6.803731e-04	-3.589639e-05	-9.423180e-04	2.878365e-04	-2.145525e-02	2.301740e-02	1.368618e-04	1.795313e-04	-5.249426e-04	4.209271e-03	2.001442e-03	1.069251e+02	1.082859e+02	
1.600000e+01	-2.130237e-02	-6.004864e-02	-2.691066e-02	-6.650003e-04	-3.702031e-05	-9.444308e-04	3.156339e-04	-2.338986e-02	2.511751e-02	1.363068e-04	1.852493e-04	-5.352454e-04	4.563484e-03	1.970745e-03	1.079384e+02	1.097657e+02	
1.700000e+01	-2.285958e-02	-5.912969e-02	-2.974034e-02	-6.474300e-04	-3.953511e-05	-9.445703e-04	3.475142e-04	-2.552270e-02	2.748891e-02	1.362042e-04	1.917657e-04	-5.645933e-04	4.962783e-03	1.945106e-03	1.090537e+02	1.113759e+02	
1.800000e+01	-2.457759e-02	-5.798639e-02	-3.285089e-02	-6.281952e-04	-4.377728e-05	-9.429426e-04	3.836356e-04	-2.784095e-02	3.013503e-02	1.365817e-04	1.990786e-04	-6.162966e-04	5.400823e-03	1.922797e-03	1.102431e+02	1.130756e+02	
1.900000e+01	-2.645652e-02	-5.664108e-02	-3.622274e-02	-6.077907e-04	-5.017861e-05	-9.395800e-04	4.241011e-04	-3.032064e-02	3.305591e-02	1.375011e-04	2.071917e-04	-6.945014e-04	5.869808e-03	1.903097e-03	1.114799e+02	1.148129e+02	
2.000000e+01	-2.848983e-02	-5.510266e-02	-3.983172e-02	-5.866597e-04	-5.902039e-05	-9.343632e-04	4.688396e-04	-3.293583e-02	3.624180e-02	1.390516e-04	2.161214e-04	-8.006095e-04	6.359792e-03	1.886230e-03	1.127347e+02	1.165369e+02	
2.100000e+01	-3.061996e-02	-5.339240e-02	-4.369142e-02	-5.653592e-04	-6.936524e-05	-9.276605e-04	5.171261e-04	-3.570614e-02	3.964333e-02	1.412177e-04	2.258815e-04	-9.189852e-04	6.851143e-03	1.870922e-03	1.139331e+02	1.182327e+02	
2.200000e+01	-3.276848e-02	-5.154054e-02	-4.782893e-02	-5.444143e-04	-7.977111e-05	-9.200975e-04	5.679723e-04	-3.867212e-02	4.319545e-02	1.438996e-04	2.364457e-04	-1.028316e-03	7.321634e-03	1.854985e-03	1.149871e+02	1.199019e+02	
2.300000e+01	-3.486198e-02	-4.956213e-02	-5.224591e-02	-5.241581e-04	-8.896695e-05	-9.120109e-04	6.203658e-04	-4.185374e-02	4.683223e-02	1.469995e-04	2.477531e-04	-1.111965e-03	7.753726e-03	1.837293e-03	1.158316e+02	1.215414e+02	
2.400000e+01	-3.683121e-02	-4.746011e-02	-5.692136e-02	-5.047594e-04	-9.577597e-05	-9.035038e-04	6.732261e-04	-4.525332e-02	5.048481e-02	1.504242e-04	2.597079e-04	-1.157289e-03	8.134784e-03	1.817619e-03	1.164261e+02	1.231484e+02	
2.500000e+01	-3.860559e-02	-4.524481e-02	-6.184206e-02	-4.862053e-04	-9.900023e-05	-8.948751e-04	7.254758e-04	-4.888920e-02	5.408028e-02	1.539949e-04	2.721228e-04	-1.153827e-03	8.455265e-03	1.794777e-03	1.167399e+02	1.247359e+02	
2.600000e+01	-4.012394e-02	-4.292471e-02	-6.700199e-02	-4.681437e-04	-9.791269e-05	-8.864889e-04	7.763188e-04	-5.279605e-02	5.754801e-02	1.574278e-04	2.846644e-04	-1.098706e-03	8.711293e-03	1.766542e-03	1.167593e+02	1.263304e+02	
2.700000e+01	-4.133796e-02	-4.049438e-02	-7.237647e-02	-4.501105e-04	-9.221217e-05	-8.784053e-04	8.251162e-04	-5.699235e-02	6.081983e-02	1.604678e-04	2.969713e-04	-9.951033e-04	8.904202e-03	1.731681e-03	1.164936e+02	1.279542e+02	
2.800000e+01	-4.220566e-02	-3.794241e-02	-7.793013e-02	-4.316143e-04	-8.182087e-05	-8.705051e-04	8.712972e-04	-6.148746e-02	6.382566e-02	1.628794e-04	3.086625e-04	-8.487144e-04	9.037824e-03	1.689522e-03	1.159632e+02	1.296280e+02	
2.900000e+01	-4.268013e-02	-3.527225e-02	-8.364161e-02	-4.122100e-04	-6.660211e-05	-8.628633e-04	9.143276e-04	-6.630645e-02	6.649035e-02	1.643665e-04	3.193150e-04	-6.639777e-04	9.115224e-03	1.638622e-03	1.151818e+02	1.313785e+02	
3.000000e+01	-4.273040e-02	-3.248839e-02	-8.948931e-02	-3.915336e-04	-4.666032e-05	-8.554561e-04	9.538648e-04	-7.146225e-02	6.875588e-02	1.647120e-04	3.286128e-04	-4.471357e-04	9.140679e-03	1.578399e-03	1.141720e+02	1.332205e+02	
3.100000e+01	-4.236031e-02	-2.957311e-02	-9.542832e-02	-3.693143e-04	-2.264234e-05	-8.477899e-04	9.898213e-04	-7.692432e-02	7.059469e-02	1.639366e-04	3.364558e-04	-2.086561e-04	9.121506e-03	1.510726e-03	1.129771e+02	1.351440e+02	
3.200000e+01	-4.158536e-02	-2.650311e-02	-1.014159e-01	-3.453726e-04	4.654917e-06	-8.393078e-04	1.022233e-03	-8.265598e-02	7.198975e-02	1.621564e-04	3.428287e-04	4.127817e-05	9.064801e-03	1.437946e-03	1.116395e+02	1.371355e+02	
3.300000e+01	-4.041829e-02	-2.326712e-02	-1.074422e-01	-3.196340e-04	3.458778e-05	-8.297586e-04	1.051267e-03	-8.864849e-02	7.293087e-02	1.594722e-04	3.477585e-04	2.953005e-04	8.975413e-03	1.361528e-03	1.101867e+02	1.391878e+02	
3.400000e+01	-3.887568e-02	-1.985452e-02	-1.135091e-01	-2.921136e-04	6.651368e-05	-8.189425e-04	1.077200e-03	-9.489974e-02	7.341438e-02	1.560252e-04	3.513222e-04	5.469269e-04	8.857576e-03	1.282960e-03	1.086428e+02	1.412917e+02	
3.500000e+01	-3.701300e-02	-1.623325e-02	-1.195892e-01	-2.630691e-04	9.980650e-05	-8.062040e-04	1.100386e-03	-1.013685e-01	7.345713e-02	1.522398e-04	3.537507e-04	7.906461e-04	8.717024e-03	1.206012e-03	1.070502e+02	1.434195e+02	
3.600000e+01	-3.491059e-02	-1.234864e-02	-1.256459e-01	-2.328434e-04	1.341192e-04	-7.905803e-04	1.121122e-03	-1.080024e-01	7.308295e-02	1.487682e-04	3.553911e-04	1.023896e-03	8.558901e-03	1.135730e-03	1.054571e+02	1.455394e+02	
3.700000e+01	-3.264891e-02	-8.150570e-03	-1.316534e-01	-2.017551e-04	1.694602e-04	-7.712527e-04	1.139537e-03	-1.147647e-01	7.230236e-02	1.462949e-04	3.565755e-04	1.247076e-03	8.385976e-03	1.076600e-03	1.039023e+02	1.476255e+02	
3.800000e+01	-3.031633e-02	-3.581059e-03	-1.375716e-01	-1.700386e-04	2.060254e-04	-7.472768e-04	1.155486e-03	-1.216085e-01	7.110829e-02	1.456053e-04	3.576302e-04	1.462025e-03	8.199714e-03	1.033263e-03	1.024235e+02	1.496523e+02	
3.900000e+01	-2.800952e-02	1.409973e-03	-1.433192e-01	-1.378479e-04	2.440101e-04	-7.176237e-04	1.168456e-03	-1.284462e-01	6.947300e-02	1.475365e-04	3.588356e-04	1.670875e-03	8.001076e-03	1.010265e-03	1.010577e+02	1.515874e+02	
4.000000e+01	-2.577362e-02	6.757747e-03	-1.488094e-01	-1.053218e-04	2.837974e-04	-6.825083e-04	1.177630e-03	-1.351783e-01	6.734509e-02	1.523097e-04	3.601103e-04	1.877264e-03	7.789791e-03	1.007499e-03	9.981620e+01	1.534031e+02	
4.100000e+01	-2.361772e-02	1.232430e-02	-1.539793e-01	-7.252759e-05	3.260639e-04	-6.430028e-04	1.182105e-03	-1.417191e-01	6.467711e-02	1.596443e-04	3.611201e-04	2.086584e-03	7.564660e-03	1.021614e-03	9.869287e+01	1.550811e+02	
4.200000e+01	-2.154619e-02	1.794614e-02	-1.587738e-01	-3.949877e-05	3.714550e-04	-6.004565e-04	1.181074e-03	-1.479774e-01	6.144949e-02	1.690215e-04	3.614454e-04	2.303869e-03	7.325357e-03	1.048319e-03	9.767976e+01	1.566063e+02	
4.300000e+01	-1.957379e-02	2.345319e-02	-1.631329e-01	-6.322987e-06	4.202922e-04	-5.562889e-04	1.173971e-03	-1.538430e-01	5.768710e-02	1.798073e-04	3.606830e-04	2.532361e-03	7.073461e-03	1.083382e-03	9.677308e+01	1.579630e+02	
4.400000e+01	-1.769217e-02	2.869507e-02	-1.670197e-01	2.697527e-05	4.726163e-04	-5.118849e-04	1.160452e-03	-1.592264e-01	5.343729e-02	1.912066e-04	3.584187e-04	2.773769e-03	6.810649e-03	1.122185e-03	9.596007e+01	1.591466e+02	
4.500000e+01	-1.582101e-02	3.358427e-02	-1.704354e-01	6.061644e-05	5.281747e-04	-4.681860e-04	1.140163e-03	-1.640898e-01	4.871404e-02	2.022911e-04	3.541838e-04	3.027974e-03	6.536446e-03	1.159715e-03	9.520393e+01	1.601713e+02	
4.600000e+01	-1.387194e-02	3.805518e-02	-1.733928e-01	9.463077e-05	5.864682e-04	-4.260298e-04	1.113001e-03	-1.684114e-01	4.353247e-02	2.122139e-04	3.475835e-04	3.293639e-03	6.250677e-03	1.191805e-03	9.446822e+01	1.610511e+02	
4.700000e+01	-1.176920e-02	4.206406e-02	-1.758953e-01	1.288181e-04	6.466764e-04	-3.860364e-04	1.079096e-03	-1.721623e-01	3.791832e-02	2.203210e-04	3.383803e-04	3.568115e-03	5.954043e-03	1.215648e-03	9.372333e+01	1.617917e+02	
4.800000e+01	-9.438477e-03	4.557712e-02	-1.779606e-01	1.628117e-04	7.079499e-04	-3.488124e-04	1.038787e-03	-1.753330e-01	3.189692e-02	2.260590e-04	3.264197e-04	3.848672e-03	5.647221e-03	1.228938e-03	9.294123e+01	1.623968e+02	
4.900000e+01	-6.849756e-03	4.859421e-02	-1.796257e-01	1.962465e-04	7.697762e-04	-3.147177e-04	9.925377e-04	-1.779395e-01	2.549265e-02	2.292407e-04	3.117207e-04	4.133941e-03	5.330240e-03	1.231095e-03	9.210815e+01	1.628607e+02	
5.000000e+01	-4.052291e-03	5.117235e-02	-1.809093e-01	2.289301e-04	8.317815e-04	-2.834552e-04	9.408296e-04	-1.799817e-01	1.873968e-02	2.302704e-04	2.946069e-04	4.423169e-03	5.003055e-03	1.224510e-03	9.123479e+01	1.631545e+02	
5.100000e+01	-1.114208e-03	5.339488e-02	-1.818023e-01	2.608236e-04	8.933761e-04	-2.543233e-04	8.841225e-04	-1.814306e-01	1.167361e-02	2.297630e-04	2.755562e-04	4.714773e-03	4.665938e-03	1.212569e-03	9.033695e+01	1.632351e+02	
5.200000e+01	1.901416e-03	5.535371e-02	-1.822924e-01	2.920548e-04	9.540226e-04	-2.265009e-04	8.227961e-04	-1.822511e-01	4.317145e-03	2.283676e-04	2.550636e-04	5.007448e-03	4.318670e-03	1.198650e-03	8.942820e+01	1.630570e+02	
5.300000e+01	4.939870e-03	5.713327e-02	-1.823784e-01	3.228497e-04	1.013358e-03	-1.992638e-04	7.572264e-04	-1.824151e-01	-3.317073e-03	2.266856e-04	2.335810e-04	5.300495e-03	3.960765e-03	1.185707e-03	8.851942e+01	1.625817e+02	
5.400000e+01	7.899493e-03	5.873030e-02	-1.820770e-01	3.529033e-04	1.070861e-03	-1.726187e-04	6.887728e-04	-1.819085e-01	-1.112257e-02	2.251411e-04	2.115892e-04	5.592616e-03	3.597145e-03	1.175809e-03	8.763560e+01	1.618098e+02	
5.500000e+01	1.063658e-02	6.008259e-02	-1.814147e-01	3.814921e-04	1.125850e-03	-1.470673e-04	6.195080e-04	-1.807400e-01	-1.890719e-02	2.240283e-04	1.896330e-04	5.882152e-03	3.236702e-03	1.170466e-03	8.681433e+01	1.607868e+02	
5.600000e+01	1.301546e-02	6.113035e-02	-1.804393e-01	4.079468e-04	1.177908e-03	-1.232186e-04	5.514125e-04	-1.789600e-01	-2.647800e-02	2.235414e-04	1.682061e-04	6.168437e-03	2.887623e-03	1.170636e-03	8.609178e+01	1.595821e+02	
5.700000e+01	1.491263e-02	6.181504e-02	-1.792232e-01	4.316378e-04	1.226901e-03	-1.018317e-04	4.863499e-04	-1.766659e-01	-3.365241e-02	2.237482e-04	1.476963e-04	6.451617e-03	2.557455e-03	1.176572e-03	8.550242e+01	1.582783e+02	
5.800000e+01	1.621833e-02	6.210168e-02	-1.778190e-01	4.520189e-04	1.272487e-03	-8.348622e-05	4.259533e-04	-1.739607e-01	-4.025296e-02	2.246666e-04	1.284791e-04	6.731013e-03	2.253145e-03	1.188408e-03	8.507861e+01	1.569542e+02	
5.900000e+01	1.693357e-02	6.204383e-02	-1.762177e-01	4.690847e-04	1.313723e-03	-6.806818e-05	3.706963e-04	-1.709060e-01	-4.615813e-02	2.260973e-04	1.108502e-04	7.003275e-03	1.976130e-03	1.205293e-03	8.482086e+01	1.556545e+02	
6.000000e+01	1.712046e-02	6.172127e-02	-1.744034e-01	4.830763e-04	1.349671e-03	-5.530153e-05	3.205738e-04	-1.675681e-01	-5.128936e-02	2.277166e-04	9.494466e-05	7.264364e-03	1.725432e-03	1.225644e-03	8.471285e+01	1.544098e+02	
6.100000e+01	1.685722e-02	6.120651e-02	-1.723771e-01	4.942693e-04	1.379626e-03	-4.500201e-05	2.755324e-04	-1.640348e-01	-5.559331e-02	2.291920e-04	8.076032e-05	7.510371e-03	1.499936e-03	1.247669e-03	8.473477e+01	1.532487e+02	
6.200000e+01	1.621988e-02	6.057292e-02	-1.701287e-01	5.029715e-04	1.402803e-03	-3.687201e-05	2.355275e-04	-1.603846e-01	-5.902246e-02	2.303028e-04	6.829928e-05	7.736729e-03	1.298980e-03	1.270165e-03	8.486773e+01	1.521965e+02	
6.300000e+01	1.527908e-02	5.989623e-02	-1.676396e-01	5.096380e-04	1.418616e-03	-3.048375e-05	2.003076e-04	-1.566664e-01	-6.158007e-02	2.310234e-04	5.751119e-05	7.939732e-03	1.121085e-03	1.292995e-03	8.509444e+01	1.512628e+02	
6.400000e+01	1.410397e-02	5.923808e-02	-1.649161e-01	5.149698e-04	1.427563e-03	-2.557596e-05	1.689665e-04	-1.528840e-01	-6.342497e-02	2.315339e-04	4.800185e-05	8.120414e-03	9.611327e-04	1.317035e-03	8.539838e+01	1.504181e+02	
6.500000e+01	1.277108e-02	5.863832e-02	-1.619850e-01	5.196279e-04	1.430623e-03	-2.212624e-05	1.404026e-04	-1.490258e-01	-6.475775e-02	2.319505e-04	3.921701e-05	8.281725e-03	8.127757e-04	1.342736e-03	8.576026e+01	1.496205e+02	
6.600000e+01	1.134905e-02	5.812034e-02	-1.588571e-01	5.241328e-04	1.428647e-03	-2.015762e-05	1.135596e-04	-1.450493e-01	-6.576524e-02	2.323630e-04	3.062116e-05	8.426820e-03	6.698274e-04	1.370585e-03	8.616167e+01	1.488226e+02	
6.700000e+01	9.901994e-03	5.769005e-02	-1.555271e-01	5.288548e-04	1.422355e-03	-1.974315e-05	8.743453e-05	-1.408852e-01	-6.661895e-02	2.328110e-04	2.168447e-05	8.559268e-03	5.261524e-04	1.400980e-03	8.658393e+01	1.479733e+02	
6.800000e+01	8.490397e-03	5.731391e-02	-1.520121e-01	5.338464e-04	1.412777e-03	-2.111799e-05	6.137111e-05	-1.364964e-01	-6.744251e-02	2.331074e-04	1.191497e-05	8.684417e-03	3.772515e-04	1.432924e-03	8.700835e+01	1.470401e+02	
6.900000e+01	7.155294e-03	5.692297e-02	-1.483460e-01	5.387924e-04	1.401058e-03	-2.450019e-05	3.529412e-05	-1.318965e-01	-6.827189e-02	2.328542e-04	1.037739e-06	8.808732e-03	2.219011e-04	1.464001e-03	8.742161e+01	1.460228e+02	
7.000000e+01	5.919567e-03	5.645556e-02	-1.445352e-01	5.433210e-04	1.387855e-03	-2.987711e-05	9.277772e-06	-1.270824e-01	-6.910515e-02	2.317036e-04	-1.103302e-05	8.937609e-03	5.974766e-05	1.492141e-03	8.781532e+01	1.449244e+02	
7.100000e+01	4.795064e-03	5.586155e-02	-1.405686e-01	5.470768e-04	1.373472e-03	-3.703314e-05	-1.654280e-05	-1.220407e-01	-6.991853e-02	2.293574e-04	-2.423253e-05	9.075554e-03	-1.093107e-04	1.515536e-03	8.818434e+01	1.437471e+02	
7.200000e+01	3.795542e-03	5.509646e-02	-1.364585e-01	5.497293e-04	1.358370e-03	-4.579984e-05	-4.210882e-05	-1.167788e-01	-7.069673e-02	2.254876e-04	-3.851155e-05	9.227397e-03	-2.860449e-04	1.531735e-03	8.852261e+01	1.424929e+02	
7.300000e+01	2.921136e-03	5.413622e-02	-1.322283e-01	5.509253e-04	1.342634e-03	-5.572199e-05	-6.724553e-05	-1.113299e-01	-7.140386e-02	2.199402e-04	-5.358713e-05	9.394890e-03	-4.705409e-04	1.539000e-03	8.882881e+01	1.411705e+02	
7.400000e+01	2.148106e-03	5.297958e-02	-1.278800e-01	5.503147e-04	1.325656e-03	-6.591180e-05	-9.154050e-05	-1.057330e-01	-7.196148e-02	2.128102e-04	-6.879629e-05	9.575890e-03	-6.612438e-04	1.537237e-03	8.911094e+01	1.397972e+02	
7.500000e+01	1.443776e-03	5.163483e-02	-1.234093e-01	5.476140e-04	1.306711e-03	-7.540974e-05	-1.145221e-04	-1.000368e-01	-7.228133e-02	2.042822e-04	-8.333224e-05	9.767336e-03	-8.560240e-04	1.526958e-03	8.938169e+01	1.383959e+02	
7.600000e+01	7.786455e-04	5.011375e-02	-1.188384e-01	5.426132e-04	1.285442e-03	-8.346746e-05	-1.358110e-04	-9.432052e-02	-7.229676e-02	1.945470e-04	-9.645997e-05	9.966591e-03	-1.053002e-03	1.508408e-03	8.965413e+01	1.369962e+02	
7.700000e+01	1.184099e-04	4.844332e-02	-1.141997e-01	5.352518e-04	1.261577e-03	-8.944824e-05	-1.550183e-04	-8.867831e-02	-7.195647e-02	1.839293e-04	-1.074665e-04	1.016993e-02	-1.249647e-03	1.482706e-03	8.994534e+01	1.356319e+02	
7.800000e+01	-5.858923e-04	4.670874e-02	-1.094922e-01	5.260076e-04	1.234202e-03	-9.265831e-05	-1.715488e-04	-8.316698e-02	-7.121898e-02	1.732901e-04	-1.155997e-04	1.036793e-02	-1.441098e-03	1.455726e-03	9.028203e+01	1.343185e+02	
7.900000e+01	-1.380899e-03	4.501559e-02	-1.047014e-01	5.156736e-04	1.202237e-03	-9.245882e-05	-1.847828e-04	-7.783098e-02	-7.004732e-02	1.635933e-04	-1.202028e-04	1.054810e-02	-1.621233e-03	1.435322e-03	9.069422e+01	1.330682e+02	
8.000000e+01	-2.291392e-03	4.345403e-02	-9.983348e-02	5.051144e-04	1.165147e-03	-8.859741e-05	-1.943727e-04	-7.272713e-02	-6.843054e-02	1.555305e-04	-1.209985e-04	1.069878e-02	-1.784796e-03	1.428134e-03	9.120564e+01	1.318980e+02	
8.100000e+01	-3.331190e-03	4.210299e-02	-9.489547e-02	4.952301e-04	1.122604e-03	-8.102453e-05	-2.001001e-04	-6.791175e-02	-6.636445e-02	1.496090e-04	-1.179441e-04	1.080782e-02	-1.926454e-03	1.440354e-03	9.183787e+01	1.308301e+02	
8.200000e+01	-4.503762e-03	4.101912e-02	-8.987213e-02	4.867907e-04	1.074207e-03	-6.974807e-05	-2.017602e-04	-6.342159e-02	-6.383561e-02	1.460608e-04	-1.110936e-04	1.086231e-02	-2.040184e-03	1.476956e-03	9.261028e+01	1.298899e+02	
8.300000e+01	-5.776807e-03	4.018472e-02	-8.476777e-02	4.798980e-04	1.020289e-03	-5.542132e-05	-1.994490e-04	-5.927359e-02	-6.087354e-02	1.443718e-04	-1.010017e-04	1.085552e-02	-2.122067e-03	1.536065e-03	9.352384e+01	1.290981e+02	
8.400000e+01	-7.104803e-03	3.954754e-02	-7.961620e-02	4.812101e-04	9.858237e-04	-9.497598e-05	-2.175722e-04	-5.547219e-02	-5.755044e-02	1.368832e-04	-1.364421e-04	1.105421e-02	-2.439674e-03	1.534894e-03	9.456948e+01	1.284638e+02	
8.500000e+01	-8.446656e-03	3.904825e-02	-7.445320e-02	4.777522e-04	9.264360e-04	-7.168744e-05	-2.111844e-04	-5.200492e-02	-5.394546e-02	1.354465e-04	-1.193341e-04	1.096440e-02	-2.499374e-03	1.603013e-03	9.573727e+01	1.279868e+02	
