Pct	FAxFem(N)	FAP(N)	FDV(N)	HipTorqAP(Nm)	HipTorqDV(Nm)	FemTorsion(Nm)	TKFlex(Nm)	FAxTib(N)	FMLTib(N)	TAnkFlex(Nm)	TibTorsion(Nm)	Rhip(m)	Rknee(m)	Rankle(m)	Fem-GRFang(deg)	Tib-GRFang(deg)	
0.000000e+00	-2.851624e-02	-2.081391e-02	-4.551836e-02	-3.870135e-04	2.622295e-04	-4.263606e-04	2.126864e-04	-4.858568e-02	2.290260e-02	1.446393e-04	1.179595e-04	4.552214e-03	3.692163e-03	2.510888e-03	1.196719e+02	1.475042e+02	
1.000000e+00	-2.908767e-02	-2.396274e-02	-4.625065e-02	-4.233618e-04	2.343894e-04	-4.800709e-04	2.468699e-04	-4.854616e-02	2.506961e-02	1.533789e-04	1.327706e-04	3.928691e-03	4.137882e-03	2.570842e-03	1.191797e+02	1.444592e+02	
2.000000e+00	-2.945593e-02	-2.730341e-02	-4.666966e-02	-4.592819e-04	2.056529e-04	-5.370567e-04	2.786985e-04	-4.813427e-02	2.699633e-02	1.615179e-04	1.478343e-04	3.340006e-03	4.526339e-03	2.623210e-03	1.185806e+02	1.414210e+02	
3.000000e+00	-2.965399e-02	-3.080589e-02	-4.678823e-02	-4.941967e-04	1.764172e-04	-5.964763e-04	3.079985e-04	-4.738926e-02	2.868372e-02	1.687983e-04	1.629257e-04	2.783318e-03	4.859265e-03	2.663116e-03	1.178948e+02	1.383878e+02	
4.000000e+00	-2.973124e-02	-3.441958e-02	-4.661311e-02	-5.274073e-04	1.466448e-04	-6.571083e-04	3.349609e-04	-4.633992e-02	3.015528e-02	1.749776e-04	1.777729e-04	2.251698e-03	5.143250e-03	2.686743e-03	1.171626e+02	1.353603e+02	
5.000000e+00	-2.973177e-02	-3.810807e-02	-4.618340e-02	-5.585154e-04	1.166747e-04	-7.180162e-04	3.597193e-04	-4.504091e-02	3.143566e-02	1.798891e-04	1.921181e-04	1.745284e-03	5.380879e-03	2.690880e-03	1.164070e+02	1.323570e+02	
6.000000e+00	-2.970428e-02	-4.183637e-02	-4.556165e-02	-5.872078e-04	8.683893e-05	-7.783770e-04	3.826272e-04	-4.356163e-02	3.256674e-02	1.834240e-04	2.057533e-04	1.265533e-03	5.576156e-03	2.673101e-03	1.156512e+02	1.294081e+02	
7.000000e+00	-2.971375e-02	-4.555563e-02	-4.481817e-02	-6.131401e-04	5.711603e-05	-8.372508e-04	4.044520e-04	-4.196974e-02	3.361721e-02	1.855639e-04	2.185578e-04	8.104302e-04	5.738847e-03	2.633001e-03	1.149366e+02	1.265495e+02	
8.000000e+00	-2.981203e-02	-4.922277e-02	-4.405589e-02	-6.361082e-04	2.788236e-05	-8.939968e-04	4.258867e-04	-4.035824e-02	3.465387e-02	1.863524e-04	2.304937e-04	3.847194e-04	5.876363e-03	2.571281e-03	1.142894e+02	1.238390e+02	
9.000000e+00	-3.002849e-02	-5.280003e-02	-4.340481e-02	-6.560049e-04	-3.076913e-08	-9.482794e-04	4.474434e-04	-3.884382e-02	3.573298e-02	1.858556e-04	2.415866e-04	-4.121450e-07	5.993395e-03	2.489491e-03	1.137173e+02	1.213527e+02	
1.000000e+01	-3.040503e-02	-5.622286e-02	-4.297398e-02	-6.729230e-04	-2.613629e-05	-9.994279e-04	4.697845e-04	-3.752939e-02	3.691577e-02	1.843203e-04	2.519034e-04	-3.393397e-04	6.099432e-03	2.393116e-03	1.132512e+02	1.191608e+02	
1.100000e+01	-3.097997e-02	-5.941814e-02	-4.286092e-02	-6.872381e-04	-5.001320e-05	-1.046720e-03	4.935204e-04	-3.651281e-02	3.825743e-02	1.821330e-04	2.615354e-04	-6.287447e-04	6.204329e-03	2.289698e-03	1.129214e+02	1.173242e+02	
1.200000e+01	-3.175747e-02	-6.233945e-02	-4.318237e-02	-6.995721e-04	-7.069468e-05	-1.090019e-03	5.189014e-04	-3.591613e-02	3.979052e-02	1.796653e-04	2.705932e-04	-8.598659e-04	6.311445e-03	2.185285e-03	1.127226e+02	1.159032e+02	
1.300000e+01	-3.272834e-02	-6.495107e-02	-4.404377e-02	-7.105871e-04	-8.725480e-05	-1.129426e-03	5.460977e-04	-3.585439e-02	4.153866e-02	1.772808e-04	2.792092e-04	-1.026198e-03	6.422617e-03	2.084987e-03	1.126385e+02	1.149408e+02	
1.400000e+01	-3.385827e-02	-6.721308e-02	-4.552971e-02	-7.203858e-04	-9.891608e-05	-1.165075e-03	5.751913e-04	-3.641885e-02	4.350866e-02	1.751424e-04	2.874619e-04	-1.124559e-03	6.539249e-03	1.991163e-03	1.126394e+02	1.144589e+02	
1.500000e+01	-3.506818e-02	-6.910045e-02	-4.773157e-02	-7.285090e-04	-1.044985e-04	-1.197489e-03	6.059230e-04	-3.770789e-02	4.567488e-02	1.730970e-04	2.953305e-04	-1.148199e-03	6.657710e-03	1.901941e-03	1.126636e+02	1.144768e+02	
1.600000e+01	-3.626633e-02	-7.059513e-02	-5.072600e-02	-7.342984e-04	-1.028471e-04	-1.227269e-03	6.379085e-04	-3.980981e-02	4.799534e-02	1.708720e-04	3.027367e-04	-1.091894e-03	6.772461e-03	1.814091e-03	1.126455e+02	1.150019e+02	
1.700000e+01	-3.736968e-02	-7.165817e-02	-5.453591e-02	-7.368019e-04	-9.346226e-05	-1.254479e-03	6.708357e-04	-4.275915e-02	5.042136e-02	1.681693e-04	3.095426e-04	-9.586225e-04	6.880619e-03	1.724876e-03	1.125378e+02	1.160128e+02	
1.800000e+01	-3.831081e-02	-7.223502e-02	-5.916118e-02	-7.350017e-04	-7.622965e-05	-1.278752e-03	7.045228e-04	-4.656330e-02	5.291145e-02	1.647349e-04	3.156504e-04	-7.553171e-04	6.980724e-03	1.632266e-03	1.123090e+02	1.174756e+02	
1.900000e+01	-3.904137e-02	-7.227035e-02	-6.461114e-02	-7.281259e-04	-5.109981e-05	-1.299597e-03	7.389758e-04	-5.123430e-02	5.544252e-02	1.604076e-04	3.210870e-04	-4.889580e-04	7.071028e-03	1.534890e-03	1.119363e+02	1.193567e+02	
2.000000e+01	-3.951601e-02	-7.169780e-02	-7.086527e-02	-7.154621e-04	-1.829631e-05	-1.316257e-03	7.741670e-04	-5.675687e-02	5.798326e-02	1.550580e-04	3.258519e-04	-1.689764e-04	7.149855e-03	1.432045e-03	1.114047e+02	1.216131e+02	
2.100000e+01	-3.968570e-02	-7.043543e-02	-7.786233e-02	-6.963159e-04	2.170217e-05	-1.327636e-03	8.099139e-04	-6.308110e-02	6.048366e-02	1.485793e-04	3.298778e-04	1.933487e-04	7.215674e-03	1.323721e-03	1.107057e+02	1.241944e+02	
2.200000e+01	-3.947082e-02	-6.844429e-02	-8.551804e-02	-6.705068e-04	6.892270e-05	-1.333214e-03	8.452816e-04	-7.015729e-02	6.284295e-02	1.408753e-04	3.330179e-04	5.919678e-04	7.260010e-03	1.209959e-03	1.098166e+02	1.270543e+02	
2.300000e+01	-3.878459e-02	-6.575815e-02	-9.369549e-02	-6.387866e-04	1.237956e-04	-1.333283e-03	8.782370e-04	-7.791338e-02	6.490450e-02	1.320837e-04	3.351291e-04	1.024287e-03	7.266544e-03	1.092862e-03	1.087177e+02	1.301400e+02	
2.400000e+01	-3.757416e-02	-6.241473e-02	-1.022250e-01	-6.019461e-04	1.863979e-04	-1.328039e-03	9.066088e-04	-8.624171e-02	6.651415e-02	1.224645e-04	3.360693e-04	1.484907e-03	7.222344e-03	9.755927e-04	1.074173e+02	1.333955e+02	
2.500000e+01	-3.581342e-02	-5.846270e-02	-1.109416e-01	-5.607126e-04	2.567418e-04	-1.317844e-03	9.281793e-04	-9.502992e-02	6.752735e-02	1.122835e-04	3.356723e-04	1.968626e-03	7.117028e-03	8.609593e-04	1.059387e+02	1.367745e+02	
2.600000e+01	-3.348745e-02	-5.397238e-02	-1.197053e-01	-5.156043e-04	3.348179e-04	-1.303462e-03	9.408903e-04	-1.041751e-01	6.781087e-02	1.016142e-04	3.336462e-04	2.470743e-03	6.943173e-03	7.498482e-04	1.043070e+02	1.402415e+02	
2.700000e+01	-3.058001e-02	-4.902194e-02	-1.283741e-01	-4.665161e-04	4.196765e-04	-1.285651e-03	9.436958e-04	-1.135403e-01	6.725813e-02	9.007141e-05	3.294106e-04	2.981141e-03	6.703474e-03	6.398157e-04	1.025460e+02	1.437578e+02	
2.800000e+01	-2.709473e-02	-4.370401e-02	-1.368118e-01	-4.134168e-04	5.098059e-04	-1.265181e-03	9.362533e-04	-1.229707e-01	6.580118e-02	7.722723e-05	3.224111e-04	3.488090e-03	6.405841e-03	5.283884e-04	1.006834e+02	1.472846e+02	
2.900000e+01	-2.303700e-02	-3.814067e-02	-1.449412e-01	-3.565279e-04	6.039287e-04	-1.243276e-03	9.186814e-04	-1.323566e-01	6.340650e-02	6.260117e-05	3.121752e-04	3.982762e-03	6.058479e-03	4.128394e-04	9.873844e+01	1.507927e+02	
3.000000e+01	-1.842360e-02	-3.244802e-02	-1.527324e-01	-2.961985e-04	7.008706e-04	-1.221109e-03	8.916236e-04	-1.416236e-01	6.007786e-02	4.576997e-05	2.983401e-04	4.457776e-03	5.671030e-03	2.911126e-04	9.672944e+01	1.542601e+02	
3.100000e+01	-1.331746e-02	-2.662752e-02	-1.601826e-01	-2.325295e-04	7.994827e-04	-1.198347e-03	8.564413e-04	-1.507221e-01	5.584503e-02	2.673586e-05	2.806455e-04	4.907034e-03	5.256632e-03	1.640983e-04	9.468859e+01	1.576829e+02	
3.200000e+01	-7.792602e-03	-2.063932e-02	-1.673190e-01	-1.655796e-04	8.990049e-04	-1.174160e-03	8.147389e-04	-1.596329e-01	5.073184e-02	5.760804e-06	2.589178e-04	5.326894e-03	4.827591e-03	3.413463e-05	9.264653e+01	1.610631e+02	
3.300000e+01	-1.916297e-03	-1.444556e-02	-1.741925e-01	-9.548473e-05	9.991558e-04	-1.147711e-03	7.680719e-04	-1.683582e-01	4.474614e-02	-1.672916e-05	2.330868e-04	5.715965e-03	4.393981e-03	-9.570407e-05	9.062816e+01	1.643957e+02	
3.400000e+01	4.226544e-03	-8.000186e-03	-1.808259e-01	-2.252380e-05	1.099575e-03	-1.117680e-03	7.179442e-04	-1.768605e-01	3.789740e-02	-3.994962e-05	2.033482e-04	6.073254e-03	3.965401e-03	-2.206526e-04	8.866238e+01	1.676473e+02	
3.500000e+01	1.052537e-02	-1.315127e-03	-1.872162e-01	5.247272e-05	1.199063e-03	-1.083160e-03	6.662460e-04	-1.850479e-01	3.029817e-02	-6.282029e-05	1.707245e-04	6.394438e-03	3.553000e-03	-3.350121e-04	8.678231e+01	1.706928e+02	
3.600000e+01	1.687817e-02	5.551714e-03	-1.933800e-01	1.283295e-04	1.296360e-03	-1.043914e-03	6.149731e-04	-1.928506e-01	2.212119e-02	-8.422292e-05	1.367145e-04	6.675571e-03	3.166788e-03	-4.337038e-04	8.501395e+01	1.732554e+02	
3.700000e+01	2.318835e-02	1.255499e-02	-1.993252e-01	2.038620e-04	1.390422e-03	-9.995581e-04	5.658834e-04	-2.002128e-01	1.353110e-02	-1.029321e-04	1.029010e-04	6.915393e-03	2.814474e-03	-5.119423e-04	8.337741e+01	1.747326e+02	
3.800000e+01	2.935485e-02	1.967643e-02	-2.050205e-01	2.779795e-04	1.480182e-03	-9.493091e-04	5.204177e-04	-2.070586e-01	4.677990e-03	-1.175673e-04	7.092986e-05	7.114753e-03	2.501479e-03	-5.651080e-04	8.188857e+01	1.744213e+02	
3.900000e+01	3.535003e-02	2.694477e-02	-2.104126e-01	3.504480e-04	1.565733e-03	-8.925121e-04	4.779893e-04	-2.133162e-01	-4.388683e-03	-1.272318e-04	4.194410e-05	7.280584e-03	2.222627e-03	-5.916219e-04	8.053905e+01	1.727071e+02	
4.000000e+01	4.122869e-02	3.443781e-02	-2.154039e-01	4.220387e-04	1.647666e-03	-8.287134e-04	4.361659e-04	-2.188854e-01	-1.370368e-02	-1.317775e-04	1.645275e-05	7.421873e-03	1.964699e-03	-5.935890e-04	7.929728e+01	1.703892e+02	
4.100000e+01	4.705455e-02	4.226162e-02	-2.198167e-01	4.938016e-04	1.725296e-03	-7.572488e-04	3.925928e-04	-2.235873e-01	-2.328516e-02	-1.313190e-04	-5.168531e-06	7.542784e-03	1.716368e-03	-5.741108e-04	7.812857e+01	1.678220e+02	
4.200000e+01	5.290612e-02	5.053591e-02	-2.234225e-01	5.668590e-04	1.796795e-03	-6.775473e-04	3.452405e-04	-2.271987e-01	-3.312770e-02	-1.262412e-04	-2.267288e-05	7.642785e-03	1.468503e-03	-5.369752e-04	7.699482e+01	1.651064e+02	
4.300000e+01	5.879703e-02	5.921362e-02	-2.260543e-01	6.410182e-04	1.860754e-03	-5.905554e-04	2.933537e-04	-2.295515e-01	-4.317073e-02	-1.170199e-04	-3.611961e-05	7.722110e-03	1.217415e-03	-4.856312e-04	7.587686e+01	1.622953e+02	
4.400000e+01	6.457028e-02	6.797387e-02	-2.276752e-01	7.140059e-04	1.917287e-03	-4.992399e-04	2.380222e-04	-2.305875e-01	-5.324224e-02	-1.038694e-04	-4.577187e-05	7.786789e-03	9.666933e-04	-4.218508e-04	7.479683e+01	1.594717e+02	
4.500000e+01	7.000935e-02	7.645847e-02	-2.283173e-01	7.834709e-04	1.966898e-03	-4.070020e-04	1.808738e-04	-2.303209e-01	-6.310587e-02	-8.707939e-05	-5.195027e-05	7.844032e-03	7.213287e-04	-3.472746e-04	7.378763e+01	1.567115e+02	
4.600000e+01	7.487648e-02	8.430892e-02	-2.281080e-01	8.474064e-04	2.010633e-03	-3.176676e-04	1.238862e-04	-2.288745e-01	-7.249956e-02	-6.719124e-05	-5.517832e-05	7.901702e-03	4.868674e-04	-2.640586e-04	7.288678e+01	1.540881e+02	
4.700000e+01	7.899437e-02	9.123378e-02	-2.272008e-01	9.045986e-04	2.049676e-03	-2.345209e-04	6.875271e-05	-2.264202e-01	-8.120459e-02	-4.511635e-05	-5.621417e-05	7.967261e-03	2.672475e-04	-1.753710e-04	7.211803e+01	1.516562e+02	
4.800000e+01	8.236413e-02	9.531669e-02	-2.263858e-01	9.419003e-04	2.096117e-03	-1.631527e-04	1.138158e-05	-2.231706e-01	-9.071535e-02	-1.950499e-05	-6.058839e-05	8.090784e-03	4.393166e-05	-7.528717e-05	7.146305e+01	1.494758e+02	
4.900000e+01	8.501157e-02	9.989816e-02	-2.242552e-01	9.845306e-04	2.128189e-03	-9.626876e-05	-3.903091e-05	-2.190038e-01	-9.774816e-02	2.787842e-06	-5.931981e-05	8.191585e-03	-1.502334e-04	1.073065e-05	7.090008e+01	1.474546e+02	
5.000000e+01	8.696868e-02	1.030852e-01	-2.215615e-01	1.019346e-03	2.157652e-03	-3.939185e-05	-8.671765e-05	-2.141617e-01	-1.038645e-01	2.280210e-05	-5.869194e-05	8.318397e-03	-3.343226e-04	8.790895e-05	7.040982e+01	1.456553e+02	
5.100000e+01	8.824120e-02	1.047670e-01	-2.183614e-01	1.045487e-03	2.184468e-03	6.416279e-06	-1.310911e-04	-2.087798e-01	-1.089919e-01	3.933032e-05	-5.939707e-05	8.474552e-03	-5.085624e-04	1.525803e-04	6.998126e+01	1.440913e+02	
5.200000e+01	8.878361e-02	1.050139e-01	-2.146671e-01	1.062212e-03	2.205936e-03	4.090832e-05	-1.711025e-04	-2.029331e-01	-1.130604e-01	5.209671e-05	-6.159302e-05	8.652895e-03	-6.711584e-04	2.043520e-04	6.961920e+01	1.427513e+02	
5.300000e+01	8.858531e-02	1.039617e-01	-2.105273e-01	1.069007e-03	2.219452e-03	6.415219e-05	-2.058474e-04	-1.967217e-01	-1.160590e-01	6.113092e-05	-6.536399e-05	8.844114e-03	-8.202645e-04	2.435956e-04	6.932933e+01	1.416191e+02	
5.400000e+01	8.767429e-02	1.017717e-01	-2.060289e-01	1.065629e-03	2.223185e-03	7.649933e-05	-2.347053e-04	-1.902716e-01	-1.180313e-01	6.664675e-05	-7.075882e-05	9.039118e-03	-9.542746e-04	2.709752e-04	6.911647e+01	1.406796e+02	
5.500000e+01	8.608868e-02	9.863687e-02	-2.012563e-01	1.052264e-03	2.215874e-03	7.889517e-05	-2.572868e-04	-1.836973e-01	-1.190407e-01	6.916400e-05	-7.759770e-05	9.229235e-03	-1.071614e-03	2.880718e-04	6.898799e+01	1.399167e+02	
5.600000e+01	8.387999e-02	9.479864e-02	-1.963071e-01	1.030296e-03	2.198243e-03	7.315194e-05	-2.736377e-04	-1.771246e-01	-1.191604e-01	6.942855e-05	-8.540029e-05	9.411134e-03	-1.171500e-03	2.972380e-04	6.895462e+01	1.393153e+02	
5.700000e+01	8.112855e-02	9.051600e-02	-1.913036e-01	1.001830e-03	2.172277e-03	6.128628e-05	-2.842508e-04	-1.706930e-01	-1.185024e-01	6.819050e-05	-9.369372e-05	9.584110e-03	-1.254117e-03	3.008572e-04	6.902629e+01	1.388596e+02	
5.800000e+01	7.791503e-02	8.605118e-02	-1.863496e-01	9.691876e-04	2.139980e-03	4.543560e-05	-2.897947e-04	-1.645125e-01	-1.171859e-01	6.629344e-05	-1.019358e-04	9.747168e-03	-1.319955e-03	3.019529e-04	6.921351e+01	1.385316e+02	
5.900000e+01	7.432064e-02	8.165849e-02	-1.815310e-01	9.347681e-04	2.103268e-03	2.772155e-05	-2.910605e-04	-1.586657e-01	-1.153354e-01	6.461352e-05	-1.095639e-04	9.898945e-03	-1.369864e-03	3.041009e-04	6.952573e+01	1.383100e+02	
6.000000e+01	7.046140e-02	7.752855e-02	-1.769639e-01	9.005507e-04	2.064050e-03	9.335406e-06	-2.889856e-04	-1.532356e-01	-1.131367e-01	6.368187e-05	-1.164774e-04	1.003674e-02	-1.405233e-03	3.096621e-04	6.996292e+01	1.381703e+02	
6.100000e+01	6.645697e-02	7.380962e-02	-1.727604e-01	8.681689e-04	2.023971e-03	-8.978515e-06	-2.845254e-04	-1.482827e-01	-1.107922e-01	6.388757e-05	-1.227680e-04	1.015667e-02	-1.427802e-03	3.206000e-04	7.051906e+01	1.380828e+02	
6.200000e+01	6.240115e-02	7.064359e-02	-1.689912e-01	8.391895e-04	1.984249e-03	-2.629961e-05	-2.785743e-04	-1.438259e-01	-1.084713e-01	6.571953e-05	-1.283894e-04	1.025449e-02	-1.439657e-03	3.396350e-04	7.118671e+01	1.380120e+02	
6.300000e+01	5.838443e-02	6.815282e-02	-1.657181e-01	8.151086e-04	1.946156e-03	-4.183009e-05	-2.721175e-04	-1.398701e-01	-1.063371e-01	6.958119e-05	-1.333729e-04	1.032679e-02	-1.443924e-03	3.692152e-04	7.195270e+01	1.379180e+02	
6.400000e+01	5.448761e-02	6.637014e-02	-1.630175e-01	7.967474e-04	1.911646e-03	-5.519703e-05	-2.661235e-04	-1.364492e-01	-1.045238e-01	7.554582e-05	-1.378543e-04	1.037520e-02	-1.444350e-03	4.100148e-04	7.279906e+01	1.377792e+02	
6.500000e+01	5.075065e-02	6.524945e-02	-1.609240e-01	7.841519e-04	1.882496e-03	-6.614751e-05	-2.613046e-04	-1.335805e-01	-1.030941e-01	8.350521e-05	-1.418383e-04	1.040551e-02	-1.444363e-03	4.615757e-04	7.370851e+01	1.375926e+02	
6.600000e+01	4.719586e-02	6.472678e-02	-1.594157e-01	7.771648e-04	1.859825e-03	-7.440952e-05	-2.583241e-04	-1.312258e-01	-1.020814e-01	9.325714e-05	-1.453108e-04	1.042440e-02	-1.447918e-03	5.227105e-04	7.466071e+01	1.373518e+02	
6.700000e+01	4.385015e-02	6.470727e-02	-1.584691e-01	7.754137e-04	1.844748e-03	-8.005786e-05	-2.578992e-04	-1.293355e-01	-1.015265e-01	1.043379e-04	-1.484662e-04	1.044009e-02	-1.459544e-03	5.904860e-04	7.563114e+01	1.370507e+02	
6.800000e+01	4.073781e-02	6.513321e-02	-1.580126e-01	7.788602e-04	1.837610e-03	-8.297680e-05	-2.605277e-04	-1.278281e-01	-1.014274e-01	1.163112e-04	-1.513880e-04	1.045890e-02	-1.482813e-03	6.619938e-04	7.659329e+01	1.366809e+02	
6.900000e+01	3.788339e-02	6.602741e-02	-1.578997e-01	7.898435e-04	1.839417e-03	-8.616107e-05	-2.681998e-04	-1.265821e-01	-1.017076e-01	1.273077e-04	-1.569004e-04	1.049348e-02	-1.530022e-03	7.262629e-04	7.751898e+01	1.362301e+02	
7.000000e+01	3.531979e-02	6.739996e-02	-1.580024e-01	8.056308e-04	1.845692e-03	-8.188070e-05	-2.772312e-04	-1.254968e-01	-1.022878e-01	1.403501e-04	-1.587679e-04	1.052450e-02	-1.580827e-03	8.003039e-04	7.838116e+01	1.356930e+02	
7.100000e+01	3.307918e-02	6.924432e-02	-1.582199e-01	8.284028e-04	1.857696e-03	-7.360842e-05	-2.893919e-04	-1.245032e-01	-1.030860e-01	1.533147e-04	-1.599761e-04	1.056421e-02	-1.645693e-03	8.718591e-04	7.915739e+01	1.350737e+02	
7.200000e+01	3.116147e-02	7.153623e-02	-1.584461e-01	8.581406e-04	1.874070e-03	-6.113740e-05	-3.040624e-04	-1.235325e-01	-1.039997e-01	1.659883e-04	-1.602349e-04	1.061091e-02	-1.721590e-03	9.398195e-04	7.983785e+01	1.343818e+02	
7.300000e+01	2.954192e-02	7.420888e-02	-1.586108e-01	8.938875e-04	1.892858e-03	-4.445709e-05	-3.201287e-04	-1.225223e-01	-1.049686e-01	1.783818e-04	-1.590848e-04	1.065878e-02	-1.802661e-03	1.004477e-03	8.042424e+01	1.336245e+02	
7.400000e+01	2.820112e-02	7.718795e-02	-1.587024e-01	9.344862e-04	1.912635e-03	-2.385735e-05	-3.364992e-04	-1.214550e-01	-1.059737e-01	1.905159e-04	-1.561736e-04	1.070204e-02	-1.882862e-03	1.066021e-03	8.092094e+01	1.328120e+02	
7.500000e+01	2.710371e-02	8.041432e-02	-1.587219e-01	9.787143e-04	1.931947e-03	4.742396e-07	-3.519321e-04	-1.203332e-01	-1.069915e-01	2.026204e-04	-1.509700e-04	1.073408e-02	-1.955368e-03	1.125778e-03	8.133887e+01	1.319578e+02	
7.600000e+01	2.620102e-02	8.387200e-02	-1.586508e-01	1.025704e-03	1.949202e-03	2.880397e-05	-3.653167e-04	-1.191501e-01	-1.079807e-01	2.151296e-04	-1.427193e-04	1.074776e-02	-2.014329e-03	1.186209e-03	8.169341e+01	1.310704e+02	
7.700000e+01	2.544004e-02	8.765534e-02	-1.584570e-01	1.076133e-03	1.963386e-03	6.212311e-05	-3.765661e-04	-1.178892e-01	-1.088943e-01	2.284929e-04	-1.307974e-04	1.073685e-02	-2.059267e-03	1.249523e-03	8.200311e+01	1.301419e+02	
7.800000e+01	2.476383e-02	9.188184e-02	-1.581010e-01	1.131058e-03	1.973548e-03	1.014327e-04	-3.858364e-04	-1.165309e-01	-1.096800e-01	2.430934e-04	-1.147312e-04	1.069498e-02	-2.090911e-03	1.317363e-03	8.228771e+01	1.291609e+02	
7.900000e+01	2.408898e-02	9.667580e-02	-1.574809e-01	1.191485e-03	1.977756e-03	1.479927e-04	-3.929503e-04	-1.150217e-01	-1.102294e-01	2.594244e-04	-9.381019e-05	1.061306e-02	-2.108656e-03	1.392127e-03	8.257281e+01	1.281143e+02	
8.000000e+01	2.331496e-02	1.021490e-01	-1.564825e-01	1.258251e-03	1.973830e-03	2.028869e-04	-3.975568e-04	-1.133073e-01	-1.104166e-01	2.779712e-04	-6.736404e-05	1.048120e-02	-2.111060e-03	1.476050e-03	8.288831e+01	1.269897e+02	
8.100000e+01	2.232168e-02	1.082843e-01	-1.551008e-01	1.373024e-03	2.001286e-03	1.680362e-04	-4.394068e-04	-1.114021e-01	-1.102002e-01	2.570051e-04	-1.272125e-04	1.050692e-02	-2.306923e-03	1.349299e-03	8.327003e+01	1.257939e+02	
8.200000e+01	2.097618e-02	1.150165e-01	-1.533575e-01	1.457206e-03	1.987390e-03	2.435729e-04	-4.454967e-04	-1.093426e-01	-1.095570e-01	2.746175e-04	-9.189062e-05	1.030589e-02	-2.310186e-03	1.424068e-03	8.375533e+01	1.245421e+02	
8.300000e+01	1.915797e-02	1.222883e-01	-1.512576e-01	1.547660e-03	1.965215e-03	3.250611e-04	-4.487625e-04	-1.071557e-01	-1.084599e-01	2.936518e-04	-5.231516e-05	1.005487e-02	-2.296059e-03	1.502447e-03	8.437485e+01	1.232473e+02	
8.400000e+01	1.678598e-02	1.300293e-01	-1.488206e-01	1.644687e-03	1.935407e-03	4.108305e-04	-4.494991e-04	-1.048769e-01	-1.069120e-01	3.133992e-04	-9.581507e-06	9.758248e-03	-2.266357e-03	1.580147e-03	8.514503e+01	1.219235e+02	
8.500000e+01	1.385341e-02	1.380393e-01	-1.461437e-01	1.747159e-03	1.899770e-03	4.985509e-04	-4.480398e-04	-1.026474e-01	-1.049448e-01	3.323259e-04	3.486288e-05	9.427852e-03	-2.223454e-03	1.649210e-03	8.605788e+01	1.206240e+02	
