Pct	FAxFem(N)	FAP(N)	FDV(N)	HipTorqAP(Nm)	HipTorqDV(Nm)	FemTorsion(Nm)	TKFlex(Nm)	FAxTib(N)	FMLTib(N)	TAnkFlex(Nm)	TibTorsion(Nm)	Rhip(m)	Rknee(m)	Rankle(m)	Fem-GRFang(deg)	Tib-GRFang(deg)	
0.000000e+00	-8.361853e-03	-6.109733e-02	-3.731286e-03	-8.942199e-04	-6.355339e-05	-8.633892e-04	1.066866e-04	-4.262917e-03	8.103741e-03	1.491602e-04	1.318551e-04	-1.028711e-03	1.726889e-03	2.414390e-03	9.777887e+01	9.395670e+01	
1.000000e+00	-1.049220e-02	-6.226885e-02	-7.472498e-03	-9.080176e-04	-4.147945e-05	-8.928572e-04	1.276354e-04	-8.072929e-03	1.003755e-02	1.543874e-04	1.375676e-04	-6.523237e-04	2.007249e-03	2.427963e-03	9.949755e+01	9.729390e+01	
2.000000e+00	-1.318360e-02	-6.289592e-02	-1.273304e-02	-9.124827e-04	-8.813374e-06	-9.233445e-04	1.551430e-04	-1.336329e-02	1.254432e-02	1.595620e-04	1.442371e-04	-1.345305e-04	2.368158e-03	2.435611e-03	1.016095e+02	1.017700e+02	
3.000000e+00	-1.623781e-02	-6.293249e-02	-1.951024e-02	-9.073700e-04	3.517233e-05	-9.539172e-04	1.882607e-04	-2.009247e-02	1.551157e-02	1.641540e-04	1.515614e-04	5.183165e-04	2.774301e-03	2.419053e-03	1.038446e+02	1.072231e+02	
4.000000e+00	-1.944353e-02	-6.234112e-02	-2.775882e-02	-8.926843e-04	9.074821e-05	-9.834903e-04	2.260892e-04	-2.818287e-02	1.882363e-02	1.676792e-04	1.592886e-04	1.278903e-03	3.186245e-03	2.363081e-03	1.059034e+02	1.134019e+02	
5.000000e+00	-2.256538e-02	-6.110978e-02	-3.741965e-02	-8.687757e-04	1.585790e-04	-1.011220e-03	2.672901e-04	-3.755633e-02	2.233717e-02	1.696771e-04	1.671328e-04	2.110856e-03	3.557917e-03	2.258584e-03	1.074798e+02	1.199944e+02	
6.000000e+00	-2.536703e-02	-5.924249e-02	-4.837596e-02	-8.361959e-04	2.391227e-04	-1.036210e-03	3.101804e-04	-4.809603e-02	2.589386e-02	1.697823e-04	1.748122e-04	2.967460e-03	3.849272e-03	2.106961e-03	1.083487e+02	1.266455e+02	
7.000000e+00	-2.765347e-02	-5.674231e-02	-6.041136e-02	-7.955403e-04	3.317549e-04	-1.057196e-03	3.530821e-04	-5.960619e-02	2.934875e-02	1.678272e-04	1.820961e-04	3.797022e-03	4.041118e-03	1.920826e-03	1.084515e+02	1.330165e+02	
8.000000e+00	-2.926091e-02	-5.362934e-02	-7.324795e-02	-7.475327e-04	4.355485e-04	-1.073003e-03	3.938917e-04	-7.184768e-02	3.254803e-02	1.637645e-04	1.886969e-04	4.566399e-03	4.129659e-03	1.716947e-03	1.078652e+02	1.388744e+02	
9.000000e+00	-3.008618e-02	-4.994758e-02	-8.654085e-02	-6.931315e-04	5.487764e-04	-1.082694e-03	4.304296e-04	-8.452787e-02	3.534879e-02	1.576932e-04	1.942860e-04	5.258917e-03	4.124801e-03	1.511172e-03	1.067572e+02	1.440989e+02	
1.000000e+01	-3.015511e-02	-4.575699e-02	-9.984204e-02	-6.336918e-04	6.673719e-04	-1.085460e-03	4.615790e-04	-9.725734e-02	3.766661e-02	1.499998e-04	1.985774e-04	5.859673e-03	4.052766e-03	1.317032e-03	1.053532e+02	1.486430e+02	
1.100000e+01	-2.955396e-02	-4.115180e-02	-1.126825e-01	-5.708969e-04	7.869371e-04	-1.080945e-03	4.861878e-04	-1.096244e-01	3.941169e-02	1.411778e-04	2.012104e-04	6.369454e-03	3.935195e-03	1.142690e-03	1.038399e+02	1.525357e+02	
1.200000e+01	-2.839631e-02	-3.627348e-02	-1.246466e-01	-5.067331e-04	9.039112e-04	-1.069665e-03	5.027274e-04	-1.212646e-01	4.047252e-02	1.317191e-04	2.017232e-04	6.802118e-03	3.783127e-03	9.912136e-04	1.023386e+02	1.558589e+02	
1.300000e+01	-2.683530e-02	-3.128678e-02	-1.353887e-01	-4.431813e-04	1.014872e-03	-1.052705e-03	5.102517e-04	-1.318611e-01	4.077846e-02	1.221276e-04	1.997970e-04	7.171013e-03	3.605403e-03	8.629453e-04	1.009304e+02	1.587048e+02	
1.400000e+01	-2.494771e-02	-2.636187e-02	-1.446965e-01	-3.813703e-04	1.116996e-03	-1.031631e-03	5.089283e-04	-1.411847e-01	4.032792e-02	1.123349e-04	1.953378e-04	7.487615e-03	3.411525e-03	7.530204e-04	9.962703e+01	1.611577e+02	
1.500000e+01	-2.274554e-02	-2.167741e-02	-1.525120e-01	-3.222694e-04	1.209026e-03	-1.008611e-03	4.993516e-04	-1.491470e-01	3.914663e-02	1.019673e-04	1.883319e-04	7.764350e-03	3.206829e-03	6.548327e-04	9.839937e+01	1.632995e+02	
1.600000e+01	-2.021798e-02	-1.739793e-02	-1.588768e-01	-2.667897e-04	1.290609e-03	-9.858930e-04	4.825596e-04	-1.557564e-01	3.728976e-02	9.059551e-05	1.788649e-04	8.011218e-03	2.995400e-03	5.623550e-04	9.720963e+01	1.652014e+02	
1.700000e+01	-1.738150e-02	-1.363240e-02	-1.638999e-01	-2.156245e-04	1.361771e-03	-9.652008e-04	4.600896e-04	-1.610916e-01	3.485401e-02	7.800661e-05	1.672066e-04	8.234102e-03	2.781985e-03	4.716759e-04	9.603292e+01	1.669210e+02	
1.800000e+01	-1.434912e-02	-1.039947e-02	-1.677730e-01	-1.692713e-04	1.423279e-03	-9.476399e-04	4.333868e-04	-1.653242e-01	3.196182e-02	6.459921e-05	1.538176e-04	8.436432e-03	2.568883e-03	3.829093e-04	9.487916e+01	1.685082e+02	
1.900000e+01	-1.125086e-02	-7.669250e-03	-1.707350e-01	-1.278636e-04	1.476390e-03	-9.339719e-04	4.037789e-04	-1.686746e-01	2.873865e-02	5.087929e-05	1.391677e-04	8.619888e-03	2.357460e-03	2.970583e-04	9.376639e+01	1.699992e+02	
2.000000e+01	-8.224098e-03	-5.368534e-03	-1.730180e-01	-9.116527e-05	1.522068e-03	-9.243520e-04	3.727051e-04	-1.713527e-01	2.532011e-02	3.740899e-05	1.237655e-04	8.783025e-03	2.150678e-03	2.158669e-04	9.272013e+01	1.714104e+02	
2.100000e+01	-5.366162e-03	-3.413380e-03	-1.748556e-01	-5.867841e-05	1.561630e-03	-9.186850e-04	3.412918e-04	-1.735727e-01	2.181259e-02	2.457797e-05	1.079698e-04	8.925068e-03	1.950560e-03	1.404686e-04	9.175750e+01	1.727511e+02	
2.200000e+01	-2.651442e-03	-1.738607e-03	-1.764668e-01	-2.951022e-05	1.597464e-03	-9.165626e-04	3.098509e-04	-1.755429e-01	1.822785e-02	1.217598e-05	9.163402e-05	9.051030e-03	1.755576e-03	6.898758e-05	9.086080e+01	1.740452e+02	
2.300000e+01	-3.271333e-05	-2.664158e-04	-1.779967e-01	-2.610425e-06	1.631471e-03	-9.169810e-04	2.785169e-04	-1.774014e-01	1.454633e-02	-4.182625e-08	7.452247e-05	9.165723e-03	1.564728e-03	-2.349830e-07	9.001056e+01	1.753117e+02	
2.400000e+01	2.540808e-03	1.078463e-03	-1.795349e-01	2.300494e-05	1.665136e-03	-9.187641e-04	2.472755e-04	-1.792321e-01	1.072787e-02	-1.227580e-05	5.638085e-05	9.273622e-03	1.377149e-03	-6.836748e-05	8.918924e+01	1.765575e+02	
2.500000e+01	5.153052e-03	2.370691e-03	-1.811502e-01	4.844607e-05	1.700209e-03	-9.208810e-04	2.156487e-04	-1.810999e-01	6.693198e-03	-2.485073e-05	3.684115e-05	9.381030e-03	1.189858e-03	-1.371158e-04	8.837076e+01	1.777547e+02	
2.600000e+01	7.906143e-03	3.748364e-03	-1.828558e-01	7.548655e-05	1.737928e-03	-9.219125e-04	1.830254e-04	-1.830114e-01	2.365684e-03	-3.811756e-05	1.567311e-05	9.493498e-03	9.997833e-04	-2.082187e-04	8.752479e+01	1.786127e+02	
2.700000e+01	1.089032e-02	5.352797e-03	-1.846089e-01	1.058644e-04	1.778812e-03	-9.202571e-04	1.489580e-04	-1.849154e-01	-2.313298e-03	-5.234427e-05	-7.217124e-06	9.614822e-03	8.051464e-04	-2.829308e-04	8.662541e+01	1.781938e+02	
2.800000e+01	1.420935e-02	7.288976e-03	-1.863566e-01	1.410675e-04	1.823524e-03	-9.146963e-04	1.128262e-04	-1.867505e-01	-7.412064e-03	-6.787775e-05	-3.197068e-05	9.749399e-03	6.032208e-04	-3.629058e-04	8.564309e+01	1.768140e+02	
2.900000e+01	1.792119e-02	9.609400e-03	-1.880225e-01	1.818840e-04	1.872248e-03	-9.043548e-04	7.415395e-05	-1.884288e-01	-1.296950e-02	-8.484176e-05	-5.859246e-05	9.899842e-03	3.921022e-04	-4.486159e-04	8.456244e+01	1.751038e+02	
3.000000e+01	2.189355e-02	1.225198e-02	-1.895035e-01	2.270814e-04	1.923503e-03	-8.891204e-04	3.318479e-05	-1.898240e-01	-1.891386e-02	-1.024377e-04	-8.659563e-05	1.006242e-02	1.735996e-04	-5.358826e-04	8.342341e+01	1.732297e+02	
3.100000e+01	2.595110e-02	1.512335e-02	-1.907237e-01	2.749585e-04	1.975649e-03	-8.694305e-04	-9.709144e-06	-1.908314e-01	-2.514705e-02	-1.196900e-04	-1.154049e-04	1.023258e-02	-5.028707e-05	-6.199167e-04	8.227553e+01	1.712581e+02	
3.200000e+01	2.991851e-02	1.813016e-02	-1.916559e-01	3.238687e-04	2.027266e-03	-8.461886e-04	-5.405214e-05	-1.913915e-01	-3.156607e-02	-1.356838e-04	-1.444817e-04	1.040571e-02	-2.774430e-04	-6.964483e-04	8.116627e+01	1.692312e+02	
3.300000e+01	3.360625e-02	2.119311e-02	-1.922923e-01	3.722178e-04	2.076452e-03	-8.203274e-04	-9.874495e-05	-1.914668e-01	-3.802854e-02	-1.494573e-04	-1.731115e-04	1.057505e-02	-5.028927e-04	-7.611627e-04	8.014526e+01	1.671901e+02	
3.400000e+01	3.687109e-02	2.417565e-02	-1.926612e-01	4.180157e-04	2.121272e-03	-7.933665e-04	-1.419478e-04	-1.910779e-01	-4.435151e-02	-1.603697e-04	-2.004351e-04	1.073291e-02	-7.182071e-04	-8.114157e-04	7.924822e+01	1.651923e+02	
3.500000e+01	3.958198e-02	2.692238e-02	-1.928363e-01	4.590641e-04	2.160194e-03	-7.671843e-04	-1.816282e-04	-1.903109e-01	-5.034237e-02	-1.679146e-04	-2.256008e-04	1.087223e-02	-9.141324e-04	-8.451120e-04	7.850894e+01	1.633020e+02	
3.600000e+01	4.160282e-02	2.928284e-02	-1.928690e-01	4.930965e-04	2.191514e-03	-7.434421e-04	-2.157683e-04	-1.892485e-01	-5.580538e-02	-1.716155e-04	-2.477793e-04	1.098690e-02	-1.081729e-03	-8.603739e-04	7.796141e+01	1.615818e+02	
3.700000e+01	4.281916e-02	2.968248e-02	-1.930091e-01	5.030774e-04	2.222879e-03	-7.267288e-04	-2.496224e-04	-1.875572e-01	-6.251610e-02	-1.691425e-04	-2.735731e-04	1.111898e-02	-1.248627e-03	-8.460614e-04	7.763236e+01	1.597470e+02	
3.800000e+01	4.320681e-02	3.110107e-02	-1.928145e-01	5.197973e-04	2.236415e-03	-7.098316e-04	-2.699300e-04	-1.860552e-01	-6.654108e-02	-1.646009e-04	-2.881766e-04	1.118046e-02	-1.349455e-03	-8.228858e-04	7.752566e+01	1.584570e+02	
3.900000e+01	4.278358e-02	3.223334e-02	-1.924886e-01	5.299375e-04	2.241765e-03	-6.952976e-04	-2.843296e-04	-1.843874e-01	-6.988254e-02	-1.561775e-04	-2.995491e-04	1.121987e-02	-1.423049e-03	-7.816571e-04	7.763561e+01	1.573458e+02	
4.000000e+01	4.158644e-02	3.321203e-02	-1.919962e-01	5.351460e-04	2.239588e-03	-6.820674e-04	-2.939134e-04	-1.825523e-01	-7.257163e-02	-1.440787e-04	-3.079618e-04	1.124088e-02	-1.475201e-03	-7.231555e-04	7.795212e+01	1.563855e+02	
4.100000e+01	3.970069e-02	3.415870e-02	-1.913109e-01	5.372341e-04	2.231031e-03	-6.692484e-04	-3.001302e-04	-1.805561e-01	-7.466927e-02	-1.287340e-04	-3.138589e-04	1.124794e-02	-1.513132e-03	-6.490239e-04	7.845403e+01	1.555454e+02	
4.200000e+01	3.722999e-02	3.517731e-02	-1.904189e-01	5.378789e-04	2.217068e-03	-6.562409e-04	-3.039449e-04	-1.784282e-01	-7.621552e-02	-1.106377e-04	-3.175706e-04	1.124346e-02	-1.541401e-03	-5.610791e-04	7.911697e+01	1.548053e+02	
4.300000e+01	3.427577e-02	3.637447e-02	-1.892926e-01	5.387483e-04	2.198314e-03	-6.423955e-04	-3.060689e-04	-1.761862e-01	-7.723319e-02	-9.020787e-05	-3.193147e-04	1.122851e-02	-1.563334e-03	-4.607624e-04	7.991710e+01	1.541478e+02	
4.400000e+01	3.096495e-02	3.785928e-02	-1.879139e-01	5.416884e-04	2.175722e-03	-6.271455e-04	-3.074463e-04	-1.738477e-01	-7.776526e-02	-6.796658e-05	-3.194369e-04	1.120497e-02	-1.583349e-03	-3.500281e-04	8.082392e+01	1.535491e+02	
4.500000e+01	2.745237e-02	3.968253e-02	-1.862882e-01	5.480854e-04	2.150664e-03	-6.104411e-04	-3.090375e-04	-1.714416e-01	-7.787625e-02	-4.466208e-05	-3.184552e-04	1.117600e-02	-1.605923e-03	-2.320879e-04	8.179840e+01	1.529868e+02	
4.600000e+01	2.385953e-02	4.166641e-02	-1.844419e-01	5.565831e-04	2.123853e-03	-5.936387e-04	-3.103949e-04	-1.690154e-01	-7.760075e-02	-2.114065e-05	-3.167143e-04	1.114362e-02	-1.628608e-03	-1.109227e-04	8.280840e+01	1.524746e+02	
4.700000e+01	2.027049e-02	4.357232e-02	-1.824112e-01	5.648618e-04	2.095651e-03	-5.784155e-04	-3.105211e-04	-1.666166e-01	-7.696533e-02	1.854398e-06	-3.144127e-04	1.110953e-02	-1.646145e-03	9.830596e-06	8.383119e+01	1.520398e+02	
4.800000e+01	1.676376e-02	4.516367e-02	-1.802738e-01	5.705099e-04	2.066922e-03	-5.665925e-04	-3.085919e-04	-1.643102e-01	-7.603822e-02	2.360099e-05	-3.118519e-04	1.107677e-02	-1.653765e-03	1.264793e-04	8.484574e+01	1.517088e+02	
4.900000e+01	1.339526e-02	4.626464e-02	-1.781040e-01	5.715920e-04	2.038477e-03	-5.594097e-04	-3.041696e-04	-1.621368e-01	-7.491430e-02	4.363177e-05	-3.093086e-04	1.104855e-02	-1.648600e-03	2.364843e-04	8.583656e+01	1.514958e+02	
5.000000e+01	1.022062e-02	4.689010e-02	-1.759169e-01	5.683512e-04	2.011034e-03	-5.562248e-04	-2.985507e-04	-1.600415e-01	-7.374219e-02	6.180636e-05	-3.072470e-04	1.102870e-02	-1.637280e-03	3.389519e-04	8.678687e+01	1.513642e+02	
5.100000e+01	7.306619e-03	4.710128e-02	-1.737468e-01	5.617171e-04	1.985792e-03	-5.560985e-04	-2.936014e-04	-1.579775e-01	-7.269414e-02	7.796096e-05	-3.063060e-04	1.102200e-02	-1.629614e-03	4.327169e-04	8.767577e+01	1.512639e+02	
5.200000e+01	4.712468e-03	4.696511e-02	-1.716457e-01	5.527318e-04	1.964098e-03	-5.580828e-04	-2.911210e-04	-1.559169e-01	-7.193327e-02	9.195059e-05	-3.070988e-04	1.103318e-02	-1.635352e-03	5.165259e-04	8.848312e+01	1.511460e+02	
5.300000e+01	2.450132e-03	4.655371e-02	-1.696414e-01	5.422566e-04	1.946445e-03	-5.611743e-04	-2.920757e-04	-1.538350e-01	-7.154730e-02	1.038806e-04	-3.098361e-04	1.106373e-02	-1.660179e-03	5.904648e-04	8.920206e+01	1.509751e+02	
5.400000e+01	4.861941e-04	4.594229e-02	-1.677533e-01	5.320244e-04	1.936613e-03	-5.685672e-04	-3.001104e-04	-1.517456e-01	-7.151693e-02	1.128778e-04	-3.168414e-04	1.113435e-02	-1.725454e-03	6.489789e-04	8.983987e+01	1.507442e+02	
5.500000e+01	-1.204070e-03	4.520881e-02	-1.659951e-01	5.203172e-04	1.925740e-03	-5.733424e-04	-3.061019e-04	-1.496599e-01	-7.181726e-02	1.215503e-04	-3.229523e-04	1.119321e-02	-1.779192e-03	7.065008e-04	9.040102e+01	1.504454e+02	
5.600000e+01	-2.663170e-03	4.442805e-02	-1.643439e-01	5.088655e-04	1.917039e-03	-5.787833e-04	-3.133438e-04	-1.475630e-01	-7.239581e-02	1.290595e-04	-3.303965e-04	1.125921e-02	-1.840340e-03	7.579963e-04	9.089626e+01	1.500742e+02	
5.700000e+01	-3.933611e-03	4.369658e-02	-1.627535e-01	4.984973e-04	1.909324e-03	-5.843950e-04	-3.210872e-04	-1.454213e-01	-7.319013e-02	1.358201e-04	-3.388468e-04	1.132705e-02	-1.904847e-03	8.057516e-04	9.133722e+01	1.496224e+02	
5.800000e+01	-5.021030e-03	4.320720e-02	-1.611626e-01	4.916301e-04	1.902186e-03	-5.886716e-04	-3.300487e-04	-1.431786e-01	-7.415179e-02	1.420682e-04	-3.481186e-04	1.139514e-02	-1.977174e-03	8.510672e-04	9.172368e+01	1.490615e+02	
5.900000e+01	-5.932554e-03	4.316578e-02	-1.594942e-01	4.909263e-04	1.895017e-03	-5.899600e-04	-3.410620e-04	-1.407726e-01	-7.521081e-02	1.480703e-04	-3.579418e-04	1.146142e-02	-2.062808e-03	8.955573e-04	9.205632e+01	1.483665e+02	
6.000000e+01	-6.690141e-03	4.377493e-02	-1.576647e-01	4.989711e-04	1.886819e-03	-5.867206e-04	-3.546551e-04	-1.381520e-01	-7.626899e-02	1.541840e-04	-3.679304e-04	1.152146e-02	-2.165627e-03	9.414923e-04	9.234133e+01	1.475218e+02	
6.100000e+01	-7.294257e-03	4.518484e-02	-1.556278e-01	5.179205e-04	1.877151e-03	-5.779828e-04	-3.712669e-04	-1.352977e-01	-7.725132e-02	1.604807e-04	-3.779062e-04	1.157173e-02	-2.288682e-03	9.892862e-04	9.257724e+01	1.465166e+02	
6.200000e+01	-7.745557e-03	4.731381e-02	-1.534023e-01	5.470922e-04	1.866156e-03	-5.641642e-04	-3.901601e-04	-1.322552e-01	-7.810777e-02	1.666139e-04	-3.876536e-04	1.161124e-02	-2.427579e-03	1.036673e-03	9.276235e+01	1.453755e+02	
6.300000e+01	-8.075494e-03	5.001448e-02	-1.510125e-01	5.847311e-04	1.853668e-03	-5.459165e-04	-4.099652e-04	-1.290938e-01	-7.877045e-02	1.722945e-04	-3.967215e-04	1.163749e-02	-2.573798e-03	1.081680e-03	9.290610e+01	1.441412e+02	
6.400000e+01	-8.307628e-03	5.313655e-02	-1.485199e-01	6.290400e-04	1.840134e-03	-5.240250e-04	-4.296053e-04	-1.259079e-01	-7.921095e-02	1.771722e-04	-4.048044e-04	1.164953e-02	-2.719747e-03	1.121643e-03	9.301484e+01	1.428540e+02	
6.500000e+01	-8.453446e-03	5.656766e-02	-1.460142e-01	6.787298e-04	1.826558e-03	-4.991976e-04	-4.484822e-04	-1.227941e-01	-7.945570e-02	1.809529e-04	-4.118189e-04	1.164772e-02	-2.859912e-03	1.153912e-03	9.309015e+01	1.415400e+02	
6.600000e+01	-8.542097e-03	6.033498e-02	-1.435223e-01	7.340997e-04	1.812968e-03	-4.712799e-04	-4.661712e-04	-1.197702e-01	-7.954074e-02	1.838908e-04	-4.177071e-04	1.162734e-02	-2.989756e-03	1.179370e-03	9.314050e+01	1.401870e+02	
6.700000e+01	-8.599583e-03	6.450867e-02	-1.410537e-01	7.960291e-04	1.799231e-03	-4.399183e-04	-4.823917e-04	-1.168281e-01	-7.950660e-02	1.863672e-04	-4.224594e-04	1.158230e-02	-3.105330e-03	1.199713e-03	9.317347e+01	1.387696e+02	
6.800000e+01	-8.629490e-03	6.917079e-02	-1.386312e-01	8.657642e-04	1.785666e-03	-4.048854e-04	-4.972002e-04	-1.139560e-01	-7.941732e-02	1.886500e-04	-4.262706e-04	1.150781e-02	-3.204232e-03	1.215764e-03	9.318808e+01	1.372562e+02	
6.900000e+01	-8.662269e-03	7.439301e-02	-1.362443e-01	9.442577e-04	1.771923e-03	-3.658326e-04	-5.104357e-04	-1.111323e-01	-7.929163e-02	1.911669e-04	-4.290616e-04	1.139698e-02	-3.283114e-03	1.229583e-03	9.319395e+01	1.356269e+02	
7.000000e+01	-8.794494e-03	8.020008e-02	-1.338554e-01	1.031420e-03	1.756802e-03	-3.223016e-04	-5.218526e-04	-1.083606e-01	-7.907340e-02	1.944661e-04	-4.303418e-04	1.124063e-02	-3.338994e-03	1.244262e-03	9.322578e+01	1.338942e+02	
7.100000e+01	-9.123531e-03	8.659188e-02	-1.314322e-01	1.126857e-03	1.739264e-03	-2.741069e-04	-5.314009e-04	-1.056560e-01	-7.870501e-02	1.989294e-04	-4.297519e-04	1.103193e-02	-3.370608e-03	1.261784e-03	9.331756e+01	1.320796e+02	
7.200000e+01	-9.763561e-03	9.353666e-02	-1.289223e-01	1.229614e-03	1.717889e-03	-2.213224e-04	-5.387721e-04	-1.030368e-01	-7.810071e-02	2.049652e-04	-4.268720e-04	1.076514e-02	-3.376213e-03	1.284413e-03	9.350777e+01	1.302167e+02	
7.300000e+01	-1.083461e-02	1.009450e-01	-1.262371e-01	1.337708e-03	1.690504e-03	-1.642616e-04	-5.430321e-04	-1.005245e-01	-7.712328e-02	2.130233e-04	-4.210098e-04	1.043539e-02	-3.352109e-03	1.314982e-03	9.383492e+01	1.283551e+02	
7.400000e+01	-1.232512e-02	1.086457e-01	-1.233401e-01	1.448305e-03	1.655976e-03	-1.038945e-04	-5.432216e-04	-9.816536e-02	-7.568522e-02	2.229128e-04	-4.117733e-04	1.004663e-02	-3.295669e-03	1.352389e-03	9.428834e+01	1.265525e+02	
7.500000e+01	-1.416847e-02	1.164192e-01	-1.202796e-01	1.557912e-03	1.614647e-03	-4.169481e-05	-5.389656e-04	-9.603925e-02	-7.378615e-02	2.342404e-04	-3.992299e-04	9.611440e-03	-3.208279e-03	1.394353e-03	9.483811e+01	1.248681e+02	
7.600000e+01	-1.630537e-02	1.240371e-01	-1.171699e-01	1.662510e-03	1.567716e-03	2.092915e-05	-5.301878e-04	-9.426209e-02	-7.147948e-02	2.469364e-04	-3.834409e-04	9.146235e-03	-3.093178e-03	1.440656e-03	9.545869e+01	1.233627e+02	
7.700000e+01	-1.865931e-02	1.313167e-01	-1.141733e-01	1.758863e-03	1.517479e-03	8.279151e-05	-5.173945e-04	-9.293689e-02	-6.889445e-02	2.610040e-04	-3.646786e-04	8.670915e-03	-2.956406e-03	1.491384e-03	9.612053e+01	1.220760e+02	
7.800000e+01	-2.113378e-02	1.382024e-01	-1.113970e-01	1.846694e-03	1.466704e-03	1.426268e-04	-5.015258e-04	-9.204628e-02	-6.620742e-02	2.762320e-04	-3.437741e-04	8.204788e-03	-2.805551e-03	1.545250e-03	9.678959e+01	1.209915e+02	
7.900000e+01	-2.362116e-02	1.446938e-01	-1.088888e-01	1.926936e-03	1.417548e-03	1.994548e-04	-4.834085e-04	-9.150813e-02	-6.356874e-02	2.923511e-04	-3.214341e-04	7.762168e-03	-2.647035e-03	1.600848e-03	9.743173e+01	1.200714e+02	
8.000000e+01	-2.600093e-02	1.508336e-01	-1.066630e-01	2.001333e-03	1.371702e-03	2.526577e-04	-4.637839e-04	-9.121040e-02	-6.110404e-02	3.090546e-04	-2.981832e-04	7.352689e-03	-2.486006e-03	1.656616e-03	9.801154e+01	1.192692e+02	
8.100000e+01	-2.814857e-02	1.567219e-01	-1.047085e-01	2.072826e-03	1.330631e-03	3.020943e-04	-4.437172e-04	-9.102075e-02	-5.891894e-02	3.257178e-04	-2.747269e-04	6.982270e-03	-2.328335e-03	1.709152e-03	9.849399e+01	1.185299e+02	
8.200000e+01	-3.005632e-02	1.624764e-01	-1.029245e-01	2.144595e-03	1.294035e-03	3.487248e-04	-4.243682e-04	-9.082735e-02	-5.698454e-02	3.414199e-04	-2.518449e-04	6.647413e-03	-2.179965e-03	1.753862e-03	9.888194e+01	1.178124e+02	
8.300000e+01	-3.178042e-02	1.681941e-01	-1.011366e-01	2.219398e-03	1.260105e-03	3.939566e-04	-4.062068e-04	-9.052374e-02	-5.517306e-02	3.552678e-04	-2.299996e-04	6.338040e-03	-2.043127e-03	1.786916e-03	9.919812e+01	1.170852e+02	
8.400000e+01	-3.337671e-02	1.739633e-01	-9.914889e-02	2.300103e-03	1.226656e-03	4.392100e-04	-3.894545e-04	-8.999995e-02	-5.333402e-02	3.661083e-04	-2.097339e-04	6.042735e-03	-1.918524e-03	1.803517e-03	9.946357e+01	1.163183e+02	
8.500000e+01	-3.489757e-02	1.798249e-01	-9.679970e-02	2.388588e-03	1.191565e-03	4.854637e-04	-3.740429e-04	-8.918297e-02	-5.132660e-02	3.727123e-04	-1.915909e-04	5.751255e-03	-1.805370e-03	1.798947e-03	9.969705e+01	1.154964e+02	
