Pct	FAxFem(N)	FAP(N)	FDV(N)	HipTorqAP(Nm)	HipTorqDV(Nm)	FemTorsion(Nm)	TKFlex(Nm)	FAxTib(N)	FMLTib(N)	TAnkFlex(Nm)	TibTorsion(Nm)	Rhip(m)	Rknee(m)	Rankle(m)	Fem-GRFang(deg)	Tib-GRFang(deg)	
0.000000e+00	-4.640853e-03	-3.293593e-03	-3.370054e-04	-5.286871e-05	-3.521226e-05	-2.882915e-05	3.952602e-05	-3.086420e-03	3.482112e-03	7.973053e-06	-9.001776e-06	-6.176748e-03	6.933446e-03	1.398591e-03	1.444960e+02	1.227793e+02	
1.000000e+00	-6.120867e-03	-4.184902e-03	1.589104e-04	-6.746321e-05	-5.569843e-05	-3.633012e-05	5.366651e-05	-3.650218e-03	4.915911e-03	1.046314e-05	-1.142552e-05	-7.510124e-03	7.236150e-03	1.410803e-03	1.456200e+02	1.194839e+02	
2.000000e+00	-7.796040e-03	-5.162929e-03	8.070772e-04	-8.358291e-05	-8.019369e-05	-4.445545e-05	6.988518e-05	-4.253838e-03	6.582893e-03	1.331785e-05	-1.409417e-05	-8.544529e-03	7.446171e-03	1.418999e-03	1.461664e+02	1.169518e+02	
3.000000e+00	-9.670889e-03	-6.235131e-03	1.599861e-03	-1.013469e-04	-1.086174e-04	-5.326325e-05	8.820538e-05	-4.913697e-03	8.481817e-03	1.656300e-05	-1.704086e-05	-9.349598e-03	7.592565e-03	1.425714e-03	1.463516e+02	1.150218e+02	
4.000000e+00	-1.174757e-02	-7.408756e-03	2.531426e-03	-1.208460e-04	-1.409010e-04	-6.282056e-05	1.086387e-04	-5.640880e-03	1.061103e-02	2.020261e-05	-2.031576e-05	-9.980612e-03	7.695334e-03	1.431035e-03	1.463182e+02	1.135512e+02	
5.000000e+00	-1.402262e-02	-8.658936e-03	3.598223e-03	-1.416433e-04	-1.769687e-04	-7.293188e-05	1.311594e-04	-6.438767e-03	1.296624e-02	2.415323e-05	-2.388086e-05	-1.049085e-02	7.775240e-03	1.431824e-03	1.462298e+02	1.124388e+02	
6.000000e+00	-1.649823e-02	-9.975098e-03	4.771394e-03	-1.635706e-04	-2.163960e-04	-8.353092e-05	1.557181e-04	-7.334101e-03	1.552960e-02	2.841266e-05	-2.771324e-05	-1.089551e-02	7.840388e-03	1.430574e-03	1.461691e+02	1.116707e+02	
7.000000e+00	-1.917963e-02	-1.136750e-02	6.006096e-03	-1.868167e-04	-2.585343e-04	-9.472817e-05	1.822472e-04	-8.369041e-03	1.827267e-02	3.305819e-05	-3.184643e-05	-1.119678e-02	7.892882e-03	1.431706e-03	1.461650e+02	1.112509e+02	
8.000000e+00	-2.205825e-02	-1.281172e-02	7.264847e-03	-2.109444e-04	-3.027256e-04	-1.063528e-04	2.105812e-04	-9.578927e-03	2.115629e-02	3.800375e-05	-3.630518e-05	-1.141358e-02	7.939484e-03	1.432845e-03	1.462693e+02	1.111710e+02	
9.000000e+00	-2.511595e-02	-1.427379e-02	8.520499e-03	-2.352774e-04	-3.483856e-04	-1.181760e-04	2.405016e-04	-1.099187e-02	2.413687e-02	4.304434e-05	-4.118509e-05	-1.156699e-02	7.985060e-03	1.429145e-03	1.465007e+02	1.114045e+02	
1.000000e+01	-2.834277e-02	-1.575566e-02	9.750942e-03	-2.595823e-04	-3.950525e-04	-1.303026e-04	2.718458e-04	-1.264128e-02	2.717705e-02	4.792057e-05	-4.682787e-05	-1.166655e-02	8.028051e-03	1.415173e-03	1.468256e+02	1.119204e+02	
1.100000e+01	-3.172492e-02	-1.725175e-02	1.093236e-02	-2.835666e-04	-4.421697e-04	-1.427315e-04	3.043687e-04	-1.455292e-02	3.023574e-02	5.240415e-05	-5.344676e-05	-1.171908e-02	8.066859e-03	1.388897e-03	1.472273e+02	1.126875e+02	
1.200000e+01	-3.522856e-02	-1.879470e-02	1.193243e-02	-3.091898e-04	-4.872234e-04	-1.552103e-04	3.371799e-04	-1.674444e-02	3.321232e-02	5.798733e-05	-5.954657e-05	-1.169146e-02	8.091003e-03	1.391470e-03	1.477093e+02	1.136909e+02	
1.300000e+01	-3.881134e-02	-2.050496e-02	1.251854e-02	-3.414672e-04	-5.259451e-04	-1.677296e-04	3.688349e-04	-1.923545e-02	3.595875e-02	6.803039e-05	-6.227979e-05	-1.152245e-02	8.080470e-03	1.490416e-03	1.482425e+02	1.149238e+02	
1.400000e+01	-4.242939e-02	-2.251793e-02	1.242921e-02	-3.864996e-04	-5.532971e-04	-1.804226e-04	3.974418e-04	-2.207544e-02	3.830683e-02	8.674565e-05	-5.842778e-05	-1.115148e-02	8.010276e-03	1.748323e-03	1.487760e+02	1.164184e+02	
1.500000e+01	-4.603297e-02	-2.485893e-02	1.139114e-02	-4.488213e-04	-5.631607e-04	-1.930570e-04	4.202160e-04	-2.533676e-02	4.008542e-02	1.182072e-04	-4.458400e-05	-1.051809e-02	7.848327e-03	2.207742e-03	1.492889e+02	1.182430e+02	
1.600000e+01	-4.959438e-02	-2.722647e-02	9.555323e-03	-5.214033e-04	-5.560378e-04	-2.047968e-04	4.359089e-04	-2.919249e-02	4.121536e-02	1.592932e-04	-2.391319e-05	-9.690853e-03	7.597198e-03	2.776227e-03	1.498087e+02	1.205825e+02	
1.700000e+01	-5.311380e-02	-2.928950e-02	7.424094e-03	-5.923922e-04	-5.395927e-04	-2.147544e-04	4.460837e-04	-3.398168e-02	4.149023e-02	2.024888e-04	-6.137949e-06	-8.830289e-03	7.300040e-03	3.313676e-03	1.503651e+02	1.237866e+02	
1.800000e+01	-5.659289e-02	-3.096011e-02	5.227422e-03	-6.575998e-04	-5.177358e-04	-2.224945e-04	4.518383e-04	-3.992173e-02	4.045166e-02	2.449516e-04	1.994344e-06	-7.999691e-03	6.981490e-03	3.784821e-03	1.509781e+02	1.280860e+02	
1.900000e+01	-6.002313e-02	-3.222484e-02	2.917212e-03	-7.172867e-04	-4.892773e-04	-2.278189e-04	4.525407e-04	-4.694331e-02	3.751816e-02	2.874988e-04	-2.236798e-06	-7.175322e-03	6.636574e-03	4.216212e-03	1.516723e+02	1.335060e+02	
2.000000e+01	-6.336330e-02	-3.312325e-02	-3.610058e-04	-7.821396e-04	-4.345490e-04	-2.316172e-04	4.390830e-04	-5.465404e-02	3.206203e-02	3.404992e-04	-1.205138e-05	-6.077645e-03	6.141059e-03	4.762255e-03	1.524003e+02	1.398534e+02	
2.100000e+01	-6.654887e-02	-3.319766e-02	-6.436590e-03	-8.643466e-04	-3.046986e-04	-2.355972e-04	3.852749e-04	-6.248366e-02	2.379022e-02	4.222738e-04	-1.177088e-05	-4.081826e-03	5.161248e-03	5.656895e-03	1.530633e+02	1.468298e+02	
2.200000e+01	-6.953554e-02	-3.061600e-02	-1.588434e-02	-9.313527e-04	-6.341681e-05	-2.406754e-04	2.616454e-04	-6.984070e-02	1.448384e-02	5.245141e-04	9.653642e-06	-8.170177e-04	3.370856e-03	6.757472e-03	1.536175e+02	1.541290e+02	
2.300000e+01	-7.230223e-02	-2.443061e-02	-2.531897e-02	-9.196391e-04	2.213807e-04	-2.472379e-04	9.379639e-05	-7.596278e-02	9.915525e-03	5.958657e-04	5.610751e-05	2.753202e-03	1.166499e-03	7.410487e-03	1.540515e+02	1.608585e+02	
2.400000e+01	-7.487910e-02	-1.752748e-02	-3.128836e-02	-8.510443e-04	4.313976e-04	-2.546300e-04	-4.278126e-05	-8.016069e-02	1.265329e-02	6.194571e-04	1.155493e-04	5.196032e-03	-5.152853e-04	7.461144e-03	1.544080e+02	1.649077e+02	
2.500000e+01	-7.734028e-02	-1.174103e-02	-3.444747e-02	-7.771721e-04	5.613767e-04	-2.609310e-04	-1.348155e-04	-8.272478e-02	1.802101e-02	6.225143e-04	1.637064e-04	6.567719e-03	-1.577248e-03	7.282987e-03	1.548002e+02	1.654259e+02	
2.600000e+01	-7.972467e-02	-6.869913e-03	-3.602459e-02	-7.097490e-04	6.460243e-04	-2.650408e-04	-2.017260e-04	-8.448060e-02	2.273370e-02	6.195056e-04	1.916630e-04	7.361657e-03	-2.298733e-03	7.059468e-03	1.552974e+02	1.642984e+02	
2.700000e+01	-8.202915e-02	-2.627770e-03	-3.660194e-02	-6.490628e-04	7.032576e-04	-2.670874e-04	-2.537801e-04	-8.586612e-02	2.637222e-02	6.146180e-04	2.044223e-04	7.825871e-03	-2.824073e-03	6.839487e-03	1.558985e+02	1.628471e+02	
2.800000e+01	-8.422465e-02	1.134174e-03	-3.647783e-02	-5.945739e-04	7.415009e-04	-2.674960e-04	-2.952290e-04	-8.698376e-02	2.929590e-02	6.094215e-04	2.086842e-04	8.078086e-03	-3.216294e-03	6.639181e-03	1.565724e+02	1.613737e+02	
2.900000e+01	-8.626049e-02	4.442202e-03	-3.584980e-02	-5.470720e-04	7.643431e-04	-2.667245e-04	-3.267688e-04	-8.769422e-02	3.218390e-02	6.052037e-04	2.119802e-04	8.173127e-03	-3.494142e-03	6.471449e-03	1.572772e+02	1.596714e+02	
3.000000e+01	-8.809994e-02	7.327120e-03	-3.485790e-02	-5.066908e-04	7.744980e-04	-2.648926e-04	-3.492954e-04	-8.787676e-02	3.541678e-02	6.026006e-04	2.185643e-04	8.150191e-03	-3.675702e-03	6.341281e-03	1.579861e+02	1.576298e+02	
3.100000e+01	-8.973180e-02	9.865111e-03	-3.358183e-02	-4.718016e-04	7.750919e-04	-2.617838e-04	-3.652513e-04	-8.747856e-02	3.907732e-02	6.009597e-04	2.292989e-04	8.047349e-03	-3.792201e-03	6.239431e-03	1.586913e+02	1.552635e+02	
3.200000e+01	-9.116077e-02	1.216437e-02	-3.201113e-02	-4.391398e-04	7.694422e-04	-2.568774e-04	-3.785218e-04	-8.654974e-02	4.294346e-02	5.983192e-04	2.415934e-04	7.901395e-03	-3.887037e-03	6.144135e-03	1.594114e+02	1.527202e+02	
3.300000e+01	-9.240407e-02	1.438350e-02	-3.001988e-02	-4.029824e-04	7.615214e-04	-2.494568e-04	-3.951583e-04	-8.536398e-02	4.639716e-02	5.908627e-04	2.481582e-04	7.753454e-03	-4.023316e-03	6.015887e-03	1.601889e+02	1.503584e+02	
3.400000e+01	-9.346792e-02	1.673618e-02	-2.742925e-02	-3.552281e-04	7.554876e-04	-2.395220e-04	-4.216598e-04	-8.439425e-02	4.864387e-02	5.732180e-04	2.387290e-04	7.643788e-03	-4.266222e-03	5.799641e-03	1.610283e+02	1.486357e+02	
3.500000e+01	-9.433600e-02	1.951171e-02	-2.390495e-02	-2.825952e-04	7.552165e-04	-2.278133e-04	-4.656397e-04	-8.420970e-02	4.877964e-02	5.361026e-04	1.994169e-04	7.608898e-03	-4.691376e-03	5.401299e-03	1.618873e+02	1.480406e+02	
3.600000e+01	-9.499889e-02	2.268608e-02	-1.889828e-02	-1.717698e-04	7.571816e-04	-2.149881e-04	-5.296923e-04	-8.459623e-02	4.717427e-02	4.661324e-04	1.245714e-04	7.611272e-03	-5.324525e-03	4.685614e-03	1.627345e+02	1.482520e+02	
3.700000e+01	-9.546038e-02	2.556890e-02	-1.194371e-02	-1.884301e-05	7.445167e-04	-2.017751e-04	-6.018171e-04	-8.445370e-02	4.607503e-02	3.504977e-04	2.571537e-05	7.479236e-03	-6.045710e-03	3.521016e-03	1.635308e+02	1.480383e+02	
3.800000e+01	-9.573018e-02	2.688103e-02	-3.113009e-03	1.637088e-04	6.920270e-04	-1.889976e-04	-6.551328e-04	-8.298313e-02	4.783051e-02	1.851061e-04	-7.892970e-05	6.956347e-03	-6.585481e-03	1.860711e-03	1.642157e+02	1.465282e+02	
3.900000e+01	-9.581574e-02	2.542634e-02	6.181322e-03	3.339349e-04	5.869309e-04	-1.772951e-04	-6.596272e-04	-8.018742e-02	5.280950e-02	-3.649173e-06	-1.713214e-04	5.909224e-03	-6.641130e-03	-3.673989e-05	1.647253e+02	1.438357e+02	
4.000000e+01	-9.573615e-02	2.149303e-02	1.395870e-02	4.492715e-04	4.517806e-04	-1.669315e-04	-6.148592e-04	-7.665838e-02	5.902329e-02	-1.696632e-04	-2.425552e-04	4.558512e-03	-6.203991e-03	-1.711918e-03	1.650137e+02	1.406684e+02	
4.100000e+01	-9.553698e-02	1.641050e-02	1.947345e-02	5.037948e-04	3.203381e-04	-1.577142e-04	-5.466324e-04	-7.293975e-02	6.470179e-02	-2.900173e-04	-2.933127e-04	3.239901e-03	-5.528642e-03	-2.933236e-03	1.650745e+02	1.375370e+02	
4.200000e+01	-9.526315e-02	1.115375e-02	2.308371e-02	5.141960e-04	2.095454e-04	-1.491319e-04	-4.766745e-04	-6.932237e-02	6.929887e-02	-3.688166e-04	-3.278093e-04	2.124074e-03	-4.831850e-03	-3.738540e-03	1.649375e+02	1.346434e+02	
4.300000e+01	-9.496001e-02	5.945830e-03	2.532754e-02	4.980570e-04	1.198814e-04	-1.403470e-04	-4.118773e-04	-6.589379e-02	7.291704e-02	-4.206393e-04	-3.514454e-04	1.217572e-03	-4.183223e-03	-4.272214e-03	1.646787e+02	1.320092e+02	
4.400000e+01	-9.466799e-02	7.234240e-04	2.653912e-02	4.667707e-04	4.590040e-05	-1.312047e-04	-3.506700e-04	-6.262056e-02	7.579589e-02	-4.573795e-04	-3.692694e-04	4.668457e-04	-3.566609e-03	-4.651935e-03	1.643343e+02	1.295614e+02	
4.500000e+01	-9.441078e-02	-4.668755e-03	2.689216e-02	4.272731e-04	-2.106182e-05	-1.227469e-04	-2.864939e-04	-5.939833e-02	7.815640e-02	-4.876330e-04	-3.865784e-04	-2.143107e-04	-2.915165e-03	-4.961819e-03	1.638753e+02	1.271855e+02	
4.600000e+01	-9.421064e-02	-1.028673e-02	2.630335e-02	3.815134e-04	-8.487169e-05	-1.157845e-04	-2.145867e-04	-5.616946e-02	8.007811e-02	-5.139004e-04	-4.057093e-04	-8.629287e-04	-2.181799e-03	-5.225057e-03	1.633119e+02	1.248270e+02	
4.700000e+01	-9.409624e-02	-1.596637e-02	2.458052e-02	3.294936e-04	-1.429636e-04	-1.103310e-04	-1.352550e-04	-5.293985e-02	8.158233e-02	-5.338798e-04	-4.254051e-04	-1.450587e-03	-1.372371e-03	-5.417035e-03	1.626983e+02	1.224903e+02	
4.800000e+01	-9.407921e-02	-2.128943e-02	2.182168e-02	2.734083e-04	-1.911753e-04	-1.066786e-04	-5.399888e-05	-4.982534e-02	8.273161e-02	-5.441831e-04	-4.422671e-04	-1.933103e-03	-5.460195e-04	-5.502606e-03	1.620451e+02	1.202530e+02	
4.900000e+01	-9.413081e-02	-2.569299e-02	1.880559e-02	2.182949e-04	-2.258110e-04	-1.052463e-04	1.606175e-05	-4.714788e-02	8.361421e-02	-5.428225e-04	-4.513180e-04	-2.272427e-03	1.616359e-04	-5.462641e-03	1.613119e+02	1.183248e+02	
5.000000e+01	-9.424760e-02	-2.907833e-02	1.626764e-02	1.679314e-04	-2.480345e-04	-1.055123e-04	6.766513e-05	-4.511589e-02	8.433150e-02	-5.327828e-04	-4.515860e-04	-2.481239e-03	6.768952e-04	-5.329748e-03	1.605300e+02	1.168285e+02	
5.100000e+01	-9.447633e-02	-3.165497e-02	1.441754e-02	1.237723e-04	-2.616182e-04	-1.065453e-04	1.025153e-04	-4.369944e-02	8.499413e-02	-5.183338e-04	-4.457483e-04	-2.598612e-03	1.018268e-03	-5.148528e-03	1.597877e+02	1.157255e+02	
5.200000e+01	-9.486214e-02	-3.358578e-02	1.328190e-02	8.647967e-05	-2.698395e-04	-1.076445e-04	1.238393e-04	-4.278764e-02	8.569978e-02	-5.022529e-04	-4.364929e-04	-2.658390e-03	1.220033e-03	-4.948067e-03	1.591568e+02	1.149314e+02	
5.300000e+01	-9.541627e-02	-3.501566e-02	1.265945e-02	5.563244e-05	-2.757843e-04	-1.085878e-04	1.370966e-04	-4.215445e-02	8.653051e-02	-4.862542e-04	-4.261253e-04	-2.692582e-03	1.338524e-03	-4.747475e-03	1.586831e+02	1.143035e+02	
5.400000e+01	-9.613068e-02	-3.605942e-02	1.228454e-02	3.039129e-05	-2.817201e-04	-1.095593e-04	1.475610e-04	-4.157647e-02	8.754093e-02	-4.712536e-04	-4.161839e-04	-2.724472e-03	1.427039e-03	-4.557421e-03	1.583827e+02	1.137083e+02	
5.500000e+01	-9.699575e-02	-3.682558e-02	1.184951e-02	9.608655e-06	-2.879518e-04	-1.104981e-04	1.589705e-04	-4.094630e-02	8.872422e-02	-4.575663e-04	-4.072001e-04	-2.757482e-03	1.522332e-03	-4.381744e-03	1.582563e+02	1.130859e+02	
5.600000e+01	-9.797802e-02	-3.741301e-02	1.102388e-02	-8.097528e-06	-2.933433e-04	-1.111024e-04	1.738108e-04	-4.028076e-02	8.999266e-02	-4.450079e-04	-3.988890e-04	-2.781667e-03	1.648184e-03	-4.219847e-03	1.582934e+02	1.124557e+02	
5.700000e+01	-9.901625e-02	-3.784815e-02	9.735451e-03	-2.333587e-05	-2.966850e-04	-1.111110e-04	1.916026e-04	-3.978169e-02	9.119437e-02	-4.330672e-04	-3.904726e-04	-2.787098e-03	1.799940e-03	-4.068291e-03	1.584617e+02	1.119449e+02	
5.800000e+01	-1.000559e-01	-3.811665e-02	8.099766e-03	-3.611502e-05	-2.978262e-04	-1.105343e-04	2.108567e-04	-3.962371e-02	9.223207e-02	-4.213385e-04	-3.815342e-04	-2.773668e-03	1.963717e-03	-3.923943e-03	1.587211e+02	1.116551e+02	
5.900000e+01	-1.010526e-01	-3.815732e-02	6.458115e-03	-4.598201e-05	-2.979620e-04	-1.095714e-04	2.289958e-04	-3.990631e-02	9.306357e-02	-4.096384e-04	-3.719968e-04	-2.753563e-03	2.116224e-03	-3.785601e-03	1.590448e+02	1.116409e+02	
6.000000e+01	-1.019665e-01	-3.792072e-02	5.163327e-03	-3.438049e-05	-4.013770e-04	-1.475287e-04	3.465194e-04	-4.069412e-02	9.363663e-02	-4.161929e-04	-3.956787e-04	-3.685335e-03	3.181647e-03	-3.821371e-03	1.594277e+02	1.119405e+02	
6.100000e+01	-1.027660e-01	-3.746048e-02	4.218733e-03	-4.578813e-05	-4.085974e-04	-1.470631e-04	3.639869e-04	-4.185964e-02	9.394902e-02	-3.973533e-04	-3.792005e-04	-3.732777e-03	3.325235e-03	-3.630056e-03	1.598557e+02	1.124832e+02	
6.200000e+01	-1.034320e-01	-3.685605e-02	3.487595e-03	-5.647843e-05	-4.169694e-04	-1.466748e-04	3.802515e-04	-4.319225e-02	9.404669e-02	-3.778736e-04	-3.621301e-04	-3.795541e-03	3.461309e-03	-3.439664e-03	1.603066e+02	1.131516e+02	
6.300000e+01	-1.039485e-01	-3.614152e-02	2.866385e-03	-6.746430e-05	-4.255577e-04	-1.461004e-04	3.955003e-04	-4.446908e-02	9.400006e-02	-3.571089e-04	-3.439154e-04	-3.865558e-03	3.592531e-03	-3.243802e-03	1.607724e+02	1.138245e+02	
6.400000e+01	-1.042969e-01	-3.534102e-02	2.270696e-03	-7.952752e-05	-4.331051e-04	-1.450263e-04	4.093786e-04	-4.545387e-02	9.389858e-02	-3.344677e-04	-3.240065e-04	-3.932125e-03	3.716715e-03	-3.036605e-03	1.612452e+02	1.143728e+02	
6.500000e+01	-1.044740e-01	-3.449472e-02	1.622116e-03	-9.292285e-05	-4.387114e-04	-1.434088e-04	4.218163e-04	-4.599655e-02	9.381774e-02	-3.099443e-04	-3.024322e-04	-3.987077e-03	3.833532e-03	-2.816822e-03	1.617093e+02	1.147099e+02	
6.600000e+01	-1.044944e-01	-3.364351e-02	8.183041e-04	-1.073203e-04	-4.413826e-04	-1.412692e-04	4.328859e-04	-4.604682e-02	9.380531e-02	-2.840720e-04	-2.796493e-04	-4.020613e-03	3.943215e-03	-2.587650e-03	1.621484e+02	1.147997e+02	
6.700000e+01	-1.043741e-01	-3.283057e-02	-2.671370e-04	-1.218790e-04	-4.404130e-04	-1.388426e-04	4.431775e-04	-4.572526e-02	9.382548e-02	-2.579555e-04	-2.566098e-04	-4.025123e-03	4.050390e-03	-2.357566e-03	1.625387e+02	1.147023e+02	
6.800000e+01	-1.041242e-01	-3.210944e-02	-1.730357e-03	-1.359330e-04	-4.359789e-04	-1.367046e-04	4.538160e-04	-4.522280e-02	9.380692e-02	-2.327196e-04	-2.344041e-04	-4.000673e-03	4.164352e-03	-2.135505e-03	1.628381e+02	1.145180e+02	
6.900000e+01	-1.037632e-01	-3.145345e-02	-3.368108e-03	-1.494264e-04	-4.297435e-04	-1.351172e-04	4.643152e-04	-4.471672e-02	9.369399e-02	-2.084810e-04	-2.130668e-04	-3.961574e-03	4.280273e-03	-1.921874e-03	1.630457e+02	1.143444e+02	
7.000000e+01	-1.033204e-01	-3.077317e-02	-4.813507e-03	-1.623668e-04	-4.235848e-04	-1.337258e-04	4.727911e-04	-4.439352e-02	9.342103e-02	-1.848527e-04	-1.920837e-04	-3.925236e-03	4.381216e-03	-1.712976e-03	1.632239e+02	1.142917e+02	
7.100000e+01	-1.028168e-01	-3.001880e-02	-5.931065e-03	-1.751336e-04	-4.181663e-04	-1.321922e-04	4.785655e-04	-4.432809e-02	9.295965e-02	-1.612102e-04	-1.708234e-04	-3.898133e-03	4.461172e-03	-1.502796e-03	1.634266e+02	1.144076e+02	
7.200000e+01	-1.022633e-01	-2.918361e-02	-6.740699e-03	-1.887245e-04	-4.136225e-04	-1.304782e-04	4.820138e-04	-4.448768e-02	9.232592e-02	-1.365554e-04	-1.483708e-04	-3.881613e-03	4.523427e-03	-1.281495e-03	1.636753e+02	1.146764e+02	
7.300000e+01	-1.016443e-01	-2.829338e-02	-7.300654e-03	-2.038881e-04	-4.094160e-04	-1.286081e-04	4.832212e-04	-4.480071e-02	9.153009e-02	-1.103248e-04	-1.242936e-04	-3.871146e-03	4.568995e-03	-1.043153e-03	1.639615e+02	1.150623e+02	
7.400000e+01	-1.009242e-01	-2.739247e-02	-7.700389e-03	-2.208627e-04	-4.045514e-04	-1.266533e-04	4.821234e-04	-4.517194e-02	9.057865e-02	-8.255853e-05	-9.875767e-05	-3.858063e-03	4.597840e-03	-7.873314e-04	1.642550e+02	1.155177e+02	
7.500000e+01	-1.000741e-01	-2.652136e-02	-7.974310e-03	-2.393912e-04	-3.989949e-04	-1.248162e-04	4.790592e-04	-4.551041e-02	8.948308e-02	-5.378064e-05	-7.242825e-05	-3.842569e-03	4.613638e-03	-5.179410e-04	1.645313e+02	1.159951e+02	
7.600000e+01	-9.904845e-02	-2.571646e-02	-8.130180e-03	-2.588861e-04	-3.931432e-04	-1.233239e-04	4.745315e-04	-4.574913e-02	8.822535e-02	-2.482948e-05	-4.628864e-05	-3.829755e-03	4.622590e-03	-2.418733e-04	1.647677e+02	1.164656e+02	
7.700000e+01	-9.777903e-02	-2.498485e-02	-8.182861e-03	-2.816185e-04	-4.226688e-04	-1.315698e-04	5.043823e-04	-4.587594e-02	8.673578e-02	6.572006e-06	-2.205329e-05	-4.174430e-03	4.981461e-03	6.490750e-05	1.649504e+02	1.169420e+02	
7.800000e+01	-9.620450e-02	-2.430369e-02	-8.102733e-03	-3.205910e-04	-4.211262e-04	-1.333886e-04	5.018820e-04	-4.589981e-02	8.493626e-02	5.369001e-05	1.848516e-05	-4.229993e-03	5.041144e-03	5.392882e-04	1.650885e+02	1.174543e+02	
7.900000e+01	-9.429125e-02	-2.358913e-02	-7.671493e-03	-3.541918e-04	-4.244141e-04	-1.349939e-04	5.007852e-04	-4.579557e-02	8.277957e-02	9.562345e-05	5.322785e-05	-4.352991e-03	5.136289e-03	9.807590e-04	1.652612e+02	1.180149e+02	
8.000000e+01	-9.201792e-02	-2.265743e-02	-6.547593e-03	-3.803222e-04	-4.347164e-04	-1.341016e-04	4.999168e-04	-4.552749e-02	8.023351e-02	1.318854e-04	8.189172e-05	-4.576335e-03	5.262712e-03	1.388380e-03	1.656244e+02	1.186382e+02	
8.100000e+01	-8.934030e-02	-2.128498e-02	-4.659172e-03	-3.972903e-04	-4.516192e-04	-1.283156e-04	4.981139e-04	-4.499923e-02	7.732055e-02	1.630302e-04	1.057396e-04	-4.911096e-03	5.416698e-03	1.772859e-03	1.662939e+02	1.192973e+02	
8.200000e+01	-8.620152e-02	-1.928298e-02	-2.283548e-03	-4.062208e-04	-4.706229e-04	-1.160378e-04	4.935079e-04	-4.406543e-02	7.412256e-02	1.922958e-04	1.292496e-04	-5.326110e-03	5.585103e-03	2.176240e-03	1.673055e+02	1.199137e+02	
8.300000e+01	-8.252562e-02	-1.666345e-02	1.574747e-04	-4.090391e-04	-4.855926e-04	-9.726960e-05	4.840042e-04	-4.273828e-02	7.059704e-02	2.218977e-04	1.553620e-04	-5.767729e-03	5.748863e-03	2.635638e-03	1.685840e+02	1.205063e+02	
8.400000e+01	-7.825268e-02	-1.367875e-02	2.244478e-03	-4.052491e-04	-4.920907e-04	-7.439506e-05	4.692679e-04	-4.117998e-02	6.657874e-02	2.493295e-04	1.813193e-04	-6.192085e-03	5.904900e-03	3.137368e-03	1.699549e+02	1.212101e+02	
