Pct	FAxFem(N)	FAP(N)	FDV(N)	HipTorqAP(Nm)	HipTorqDV(Nm)	FemTorsion(Nm)	TKFlex(Nm)	FAxTib(N)	FMLTib(N)	TAnkFlex(Nm)	TibTorsion(Nm)	Rhip(m)	Rknee(m)	Rankle(m)	Fem-GRFang(deg)	Tib-GRFang(deg)	
0.000000e+00	-5.166979e-02	-3.050201e-02	-4.267380e-04	-1.160220e-04	-4.382438e-04	-2.596649e-04	4.441019e-04	-3.360560e-02	3.925063e-02	-3.421755e-04	-3.987953e-04	-7.303738e-03	7.401368e-03	-5.702670e-03	1.494431e+02	1.240606e+02	
1.000000e+00	-5.334234e-02	-3.035886e-02	-4.961983e-04	-9.959665e-05	-4.494678e-04	-2.567332e-04	4.562681e-04	-3.452390e-02	4.066635e-02	-3.551764e-04	-4.074728e-04	-7.322894e-03	7.433687e-03	-5.786665e-03	1.503512e+02	1.242273e+02	
2.000000e+00	-5.506578e-02	-3.024665e-02	-5.457637e-04	-8.274320e-05	-4.609169e-04	-2.539935e-04	4.683859e-04	-3.551974e-02	4.208190e-02	-3.693426e-04	-4.170942e-04	-7.336132e-03	7.455012e-03	-5.878600e-03	1.512169e+02	1.244264e+02	
3.000000e+00	-5.683547e-02	-3.016716e-02	-5.864757e-04	-6.562574e-05	-4.724504e-04	-2.514447e-04	4.804672e-04	-3.659724e-02	4.348859e-02	-3.844992e-04	-4.274960e-04	-7.342109e-03	7.466693e-03	-5.975304e-03	1.520371e+02	1.246624e+02	
4.000000e+00	-5.864559e-02	-3.012383e-02	-6.303165e-04	-4.846713e-05	-4.839275e-04	-2.490946e-04	4.925351e-04	-3.775915e-02	4.487705e-02	-4.004403e-04	-4.384952e-04	-7.339697e-03	7.470248e-03	-6.073451e-03	1.528073e+02	1.249381e+02	
5.000000e+00	-6.048904e-02	-3.012146e-02	-6.897127e-04	-3.154922e-05	-4.952233e-04	-2.469638e-04	5.046345e-04	-3.900631e-02	4.623751e-02	-4.169224e-04	-4.498911e-04	-7.328241e-03	7.467506e-03	-6.169557e-03	1.535223e+02	1.252546e+02	
6.000000e+00	-6.235722e-02	-3.016616e-02	-7.803506e-04	-1.525363e-05	-5.062246e-04	-2.450840e-04	5.168657e-04	-4.033856e-02	4.755874e-02	-4.336227e-04	-4.614390e-04	-7.307461e-03	7.461068e-03	-6.259437e-03	1.541765e+02	1.256122e+02	
7.000000e+00	-6.424067e-02	-3.026142e-02	-9.183181e-04	2.790405e-08	-5.168604e-04	-2.434736e-04	5.293767e-04	-4.175375e-02	4.882962e-02	-4.501692e-04	-4.728642e-04	-7.277947e-03	7.454190e-03	-6.338864e-03	1.547665e+02	1.260108e+02	
8.000000e+00	-6.612900e-02	-3.040827e-02	-1.120297e-03	1.390679e-05	-5.270807e-04	-2.421333e-04	5.423442e-04	-4.324859e-02	5.003857e-02	-4.661577e-04	-4.838718e-04	-7.240719e-03	7.450400e-03	-6.403796e-03	1.552908e+02	1.264502e+02	
9.000000e+00	-6.801140e-02	-3.060421e-02	-1.402212e-03	2.603488e-05	-5.368591e-04	-2.410426e-04	5.559586e-04	-4.481846e-02	5.117444e-02	-4.811733e-04	-4.941612e-04	-7.197166e-03	7.453214e-03	-6.450638e-03	1.557505e+02	1.269301e+02	
1.000000e+01	-6.987760e-02	-3.084352e-02	-1.767139e-03	3.631904e-05	-5.461669e-04	-2.401561e-04	5.702325e-04	-4.645458e-02	5.223000e-02	-4.950138e-04	-5.035715e-04	-7.148559e-03	7.463544e-03	-6.479036e-03	1.561490e+02	1.274469e+02	
1.100000e+01	-7.171744e-02	-3.111955e-02	-2.210336e-03	4.483046e-05	-5.549400e-04	-2.394173e-04	5.850366e-04	-4.814572e-02	5.320024e-02	-5.076312e-04	-5.120436e-04	-7.095570e-03	7.480391e-03	-6.490671e-03	1.564904e+02	1.279956e+02	
1.200000e+01	-7.352076e-02	-3.142532e-02	-2.726987e-03	5.166183e-05	-5.630927e-04	-2.387691e-04	6.002180e-04	-4.988022e-02	5.408052e-02	-5.189929e-04	-5.195315e-04	-7.038500e-03	7.502555e-03	-6.487264e-03	1.567787e+02	1.285714e+02	
1.300000e+01	-7.527752e-02	-3.175396e-02	-3.312263e-03	5.691995e-05	-5.705222e-04	-2.381561e-04	6.156052e-04	-5.164622e-02	5.486661e-02	-5.290819e-04	-5.260033e-04	-6.977336e-03	7.528690e-03	-6.470532e-03	1.570176e+02	1.291698e+02	
1.400000e+01	-7.697738e-02	-3.209758e-02	-3.959179e-03	6.070077e-05	-5.771542e-04	-2.375364e-04	6.310268e-04	-5.343025e-02	5.555538e-02	-5.378665e-04	-5.314277e-04	-6.912425e-03	7.557643e-03	-6.441886e-03	1.572111e+02	1.297859e+02	
1.500000e+01	-7.860964e-02	-3.244836e-02	-4.659243e-03	6.306730e-05	-5.829359e-04	-2.368853e-04	6.463135e-04	-5.521816e-02	5.614391e-02	-5.452952e-04	-5.357709e-04	-6.844309e-03	7.588432e-03	-6.402367e-03	1.573633e+02	1.304153e+02	
1.600000e+01	-8.016468e-02	-3.279636e-02	-5.402550e-03	6.413011e-05	-5.878323e-04	-2.361675e-04	6.612956e-04	-5.699614e-02	5.663041e-02	-5.513328e-04	-5.390043e-04	-6.773644e-03	7.620169e-03	-6.353057e-03	1.574799e+02	1.310542e+02	
1.700000e+01	-8.163436e-02	-3.313199e-02	-6.178790e-03	6.401550e-05	-5.918145e-04	-2.353477e-04	6.758054e-04	-5.875202e-02	5.701357e-02	-5.559647e-04	-5.411113e-04	-6.700947e-03	7.651952e-03	-6.295030e-03	1.575665e+02	1.317002e+02	
1.800000e+01	-8.301347e-02	-3.344610e-02	-6.971651e-03	6.299628e-05	-5.948515e-04	-2.343749e-04	6.895876e-04	-6.047566e-02	5.729342e-02	-5.593196e-04	-5.421493e-04	-6.626465e-03	7.681797e-03	-6.230651e-03	1.576300e+02	1.323518e+02	
1.900000e+01	-8.430055e-02	-3.372983e-02	-7.753759e-03	6.159398e-05	-5.969239e-04	-2.331723e-04	7.022407e-04	-6.215788e-02	5.747262e-02	-5.617643e-04	-5.422988e-04	-6.550353e-03	7.706048e-03	-6.164528e-03	1.576795e+02	1.330073e+02	
2.000000e+01	-8.549533e-02	-3.397878e-02	-8.495025e-03	6.034947e-05	-5.980222e-04	-2.316781e-04	7.133318e-04	-6.378970e-02	5.755424e-02	-5.637487e-04	-5.417941e-04	-6.472703e-03	7.720758e-03	-6.101743e-03	1.577228e+02	1.336641e+02	
2.100000e+01	-8.659899e-02	-3.418999e-02	-9.161522e-03	5.985622e-05	-5.981768e-04	-2.298327e-04	7.224133e-04	-6.536093e-02	5.754362e-02	-5.657964e-04	-5.409107e-04	-6.393949e-03	7.721920e-03	-6.047833e-03	1.577684e+02	1.343186e+02	
2.200000e+01	-8.761258e-02	-3.436448e-02	-9.715328e-03	6.074278e-05	-5.974220e-04	-2.275924e-04	7.289896e-04	-6.686046e-02	5.744589e-02	-5.685409e-04	-5.399827e-04	-6.314499e-03	7.705113e-03	-6.009238e-03	1.578240e+02	1.349660e+02	
2.300000e+01	-8.853598e-02	-3.450959e-02	-1.011198e-02	6.367909e-05	-5.957842e-04	-2.249521e-04	7.324778e-04	-6.827525e-02	5.726572e-02	-5.727867e-04	-5.394390e-04	-6.234637e-03	7.665079e-03	-5.993977e-03	1.578946e+02	1.356000e+02	
2.400000e+01	-8.936917e-02	-3.463513e-02	-1.030412e-02	6.936139e-05	-5.932500e-04	-2.219175e-04	7.322259e-04	-6.958686e-02	5.701484e-02	-5.794065e-04	-5.397323e-04	-6.154160e-03	7.595845e-03	-6.010552e-03	1.579847e+02	1.362090e+02	
2.500000e+01	-9.011244e-02	-3.475196e-02	-1.024338e-02	7.847841e-05	-5.897273e-04	-2.185081e-04	7.275022e-04	-7.076945e-02	5.671739e-02	-5.892791e-04	-5.413015e-04	-6.071964e-03	7.490524e-03	-6.067349e-03	1.580972e+02	1.367741e+02	
2.600000e+01	-9.076540e-02	-3.486547e-02	-9.901518e-03	9.133697e-05	-5.850605e-04	-2.147738e-04	7.178023e-04	-7.179384e-02	5.640959e-02	-6.028127e-04	-5.443135e-04	-5.986234e-03	7.344424e-03	-6.167870e-03	1.582324e+02	1.372719e+02	
2.700000e+01	-9.132249e-02	-3.496634e-02	-9.334707e-03	1.067462e-04	-5.791807e-04	-2.108504e-04	7.038700e-04	-7.265287e-02	5.611143e-02	-6.186755e-04	-5.480079e-04	-5.896033e-03	7.165365e-03	-6.298088e-03	1.583817e+02	1.376977e+02	
2.800000e+01	-9.177745e-02	-3.503967e-02	-8.623189e-03	1.231372e-04	-5.721722e-04	-2.068797e-04	6.869185e-04	-7.335738e-02	5.582251e-02	-6.350714e-04	-5.514265e-04	-5.801986e-03	6.965545e-03	-6.439801e-03	1.585363e+02	1.380617e+02	
2.900000e+01	-9.212445e-02	-3.507304e-02	-7.849543e-03	1.389657e-04	-5.642788e-04	-2.029880e-04	6.683312e-04	-7.393453e-02	5.551770e-02	-6.502687e-04	-5.536867e-04	-5.706297e-03	6.758532e-03	-6.575874e-03	1.586877e+02	1.383887e+02	
3.000000e+01	-9.235988e-02	-3.505777e-02	-7.085987e-03	1.529977e-04	-5.558619e-04	-1.992546e-04	6.494451e-04	-7.442284e-02	5.515251e-02	-6.628973e-04	-5.540920e-04	-5.612303e-03	6.557173e-03	-6.692995e-03	1.588310e+02	1.387132e+02	
3.100000e+01	-9.248830e-02	-3.498373e-02	-6.340871e-03	1.655190e-04	-5.469642e-04	-1.955417e-04	6.303976e-04	-7.483873e-02	5.471249e-02	-6.730498e-04	-5.526372e-04	-5.520062e-03	6.362087e-03	-6.792541e-03	1.589726e+02	1.390504e+02	
3.200000e+01	-9.251791e-02	-3.484025e-02	-5.599243e-03	1.773684e-04	-5.373849e-04	-1.916331e-04	6.107727e-04	-7.518358e-02	5.420650e-02	-6.813522e-04	-5.495701e-04	-5.427089e-03	6.168238e-03	-6.881026e-03	1.591227e+02	1.394012e+02	
3.300000e+01	-9.245815e-02	-3.461756e-02	-4.848636e-03	1.893280e-04	-5.268336e-04	-1.873249e-04	5.901096e-04	-7.545480e-02	5.365251e-02	-6.883946e-04	-5.451343e-04	-5.329880e-03	5.970032e-03	-6.964363e-03	1.592901e+02	1.397616e+02	
3.400000e+01	-9.231857e-02	-3.430903e-02	-4.079206e-03	2.020614e-04	-5.149429e-04	-1.824437e-04	5.679169e-04	-7.564509e-02	5.307709e-02	-6.947125e-04	-5.395852e-04	-5.224020e-03	5.761434e-03	-7.047757e-03	1.594814e+02	1.401218e+02	
3.500000e+01	-9.210350e-02	-3.392364e-02	-3.276433e-03	2.157795e-04	-5.014546e-04	-1.770202e-04	5.437730e-04	-7.573554e-02	5.251589e-02	-7.007309e-04	-5.332891e-04	-5.106101e-03	5.537012e-03	-7.135248e-03	1.596938e+02	1.404603e+02	
3.600000e+01	-9.181385e-02	-3.347930e-02	-2.424286e-03	2.303503e-04	-4.862111e-04	-1.712114e-04	5.173445e-04	-7.569967e-02	5.201173e-02	-7.067259e-04	-5.266637e-04	-4.973646e-03	5.292122e-03	-7.229379e-03	1.599177e+02	1.407473e+02	
3.700000e+01	-9.145162e-02	-3.299037e-02	-1.511462e-03	2.455452e-04	-4.690952e-04	-1.651638e-04	4.883938e-04	-7.551028e-02	5.161279e-02	-7.128134e-04	-5.200981e-04	-4.824497e-03	5.022978e-03	-7.331063e-03	1.601444e+02	1.409503e+02	
3.800000e+01	-9.101971e-02	-3.246930e-02	-5.353490e-04	2.609601e-04	-4.500814e-04	-1.590218e-04	4.568785e-04	-7.514220e-02	5.136656e-02	-7.188886e-04	-5.139284e-04	-4.657339e-03	4.727674e-03	-7.438895e-03	1.603648e+02	1.410372e+02	
3.900000e+01	-9.052251e-02	-3.192733e-02	4.614566e-04	2.755890e-04	-4.295666e-04	-1.529132e-04	4.237384e-04	-7.460465e-02	5.127071e-02	-7.241536e-04	-5.080795e-04	-4.475164e-03	4.414447e-03	-7.544129e-03	1.605704e+02	1.410068e+02	
4.000000e+01	-8.996631e-02	-3.138051e-02	1.404089e-03	2.881058e-04	-4.083982e-04	-1.469469e-04	3.907489e-04	-7.394658e-02	5.126218e-02	-7.274912e-04	-5.021257e-04	-4.285737e-03	4.100525e-03	-7.634304e-03	1.607533e+02	1.408955e+02	
4.100000e+01	-8.935813e-02	-3.085366e-02	2.233369e-03	2.974791e-04	-3.875203e-04	-1.412384e-04	3.595620e-04	-7.322574e-02	5.126261e-02	-7.281978e-04	-4.956845e-04	-4.098092e-03	3.802429e-03	-7.700813e-03	1.609050e+02	1.407484e+02	
4.200000e+01	-8.870596e-02	-3.037230e-02	2.909933e-03	3.030958e-04	-3.678307e-04	-1.358855e-04	3.315234e-04	-7.250384e-02	5.118992e-02	-7.259955e-04	-4.884195e-04	-3.921157e-03	3.534114e-03	-7.739273e-03	1.610188e+02	1.406157e+02	
4.300000e+01	-8.802088e-02	-2.994832e-02	3.426845e-03	3.051212e-04	-3.496958e-04	-1.308599e-04	3.070473e-04	-7.181506e-02	5.100996e-02	-7.211700e-04	-4.802830e-04	-3.758579e-03	3.300187e-03	-7.751236e-03	1.610957e+02	1.405229e+02	
4.400000e+01	-8.731849e-02	-2.957264e-02	3.801170e-03	3.044482e-04	-3.327673e-04	-1.259535e-04	2.855549e-04	-7.114691e-02	5.076499e-02	-7.144087e-04	-4.716362e-04	-3.606503e-03	3.094820e-03	-7.742700e-03	1.611470e+02	1.404514e+02	
4.500000e+01	-8.661341e-02	-2.923545e-02	4.039958e-03	3.018230e-04	-3.166228e-04	-1.209508e-04	2.665315e-04	-7.048027e-02	5.050481e-02	-7.062462e-04	-4.628550e-04	-3.460221e-03	2.912796e-03	-7.718231e-03	1.611837e+02	1.403760e+02	
4.600000e+01	-8.591868e-02	-2.893049e-02	4.140937e-03	2.977843e-04	-3.008766e-04	-1.156630e-04	2.496204e-04	-6.979286e-02	5.028045e-02	-6.970664e-04	-4.543131e-04	-3.315329e-03	2.750542e-03	-7.680903e-03	1.612143e+02	1.402678e+02	
4.700000e+01	-8.524486e-02	-2.865667e-02	4.100930e-03	2.926677e-04	-2.852744e-04	-1.099799e-04	2.346075e-04	-6.906530e-02	5.013470e-02	-6.871421e-04	-4.463300e-04	-3.168795e-03	2.605993e-03	-7.632695e-03	1.612429e+02	1.401004e+02	
4.800000e+01	-8.459850e-02	-2.841965e-02	3.928672e-03	2.865941e-04	-2.697826e-04	-1.039388e-04	2.213457e-04	-6.828912e-02	5.008929e-02	-6.766641e-04	-4.390800e-04	-3.020036e-03	2.477816e-03	-7.574801e-03	1.612667e+02	1.398582e+02	
4.900000e+01	-8.398483e-02	-2.822278e-02	3.631879e-03	2.796784e-04	-2.544036e-04	-9.758590e-05	2.097332e-04	-6.745634e-02	5.016258e-02	-6.657886e-04	-4.327000e-04	-2.868960e-03	2.365203e-03	-7.508231e-03	1.612828e+02	1.395276e+02	
5.000000e+01	-8.340733e-02	-2.806741e-02	3.214077e-03	2.720299e-04	-2.391385e-04	-9.095510e-05	1.997160e-04	-6.655779e-02	5.037036e-02	-6.546371e-04	-4.272960e-04	-2.715574e-03	2.267905e-03	-7.433832e-03	1.612883e+02	1.390960e+02	
5.100000e+01	-8.286698e-02	-2.795433e-02	2.679600e-03	2.637270e-04	-2.240301e-04	-8.410216e-05	1.912661e-04	-6.559332e-02	5.071127e-02	-6.433041e-04	-4.228544e-04	-2.560459e-03	2.185996e-03	-7.352378e-03	1.612793e+02	1.385620e+02	
5.200000e+01	-8.236046e-02	-2.788850e-02	2.056419e-03	2.547149e-04	-2.092926e-04	-7.722948e-05	1.842311e-04	-6.459762e-02	5.113337e-02	-6.318613e-04	-4.190159e-04	-2.406259e-03	2.118125e-03	-7.264576e-03	1.612459e+02	1.379608e+02	
5.300000e+01	-8.188426e-02	-2.787120e-02	1.388079e-03	2.449871e-04	-1.951190e-04	-7.056623e-05	1.782572e-04	-6.361085e-02	5.158118e-02	-6.203836e-04	-4.153657e-04	-2.255484e-03	2.060569e-03	-7.171340e-03	1.611812e+02	1.373336e+02	
5.400000e+01	-8.143631e-02	-2.789803e-02	7.273383e-04	2.346240e-04	-1.816478e-04	-6.432348e-05	1.728387e-04	-6.266889e-02	5.200973e-02	-6.089490e-04	-4.115335e-04	-2.110087e-03	2.007758e-03	-7.073775e-03	1.610839e+02	1.367178e+02	
5.500000e+01	-8.101599e-02	-2.796044e-02	1.297096e-04	2.237547e-04	-1.689779e-04	-5.867631e-05	1.674110e-04	-6.179742e-02	5.238976e-02	-5.976163e-04	-4.072363e-04	-1.971616e-03	1.953334e-03	-6.972924e-03	1.609592e+02	1.361409e+02	
5.600000e+01	-8.062480e-02	-2.804232e-02	-3.779847e-04	2.126034e-04	-1.571059e-04	-5.364668e-05	1.616614e-04	-6.098454e-02	5.273885e-02	-5.863943e-04	-4.025019e-04	-1.840441e-03	1.893807e-03	-6.869405e-03	1.608201e+02	1.355951e+02	
5.700000e+01	-8.026370e-02	-2.812600e-02	-7.859452e-04	2.013919e-04	-1.460208e-04	-4.919656e-05	1.554736e-04	-6.020430e-02	5.308786e-02	-5.752529e-04	-3.974563e-04	-1.716829e-03	1.827969e-03	-6.763493e-03	1.606816e+02	1.350601e+02	
5.800000e+01	-7.993286e-02	-2.819345e-02	-1.090170e-03	1.903323e-04	-1.357326e-04	-4.527894e-05	1.488189e-04	-5.943250e-02	5.346240e-02	-5.641501e-04	-3.922015e-04	-1.601257e-03	1.755638e-03	-6.655360e-03	1.605582e+02	1.345181e+02	
5.900000e+01	-7.963200e-02	-2.822791e-02	-1.293089e-03	1.796040e-04	-1.262703e-04	-4.184377e-05	1.417627e-04	-5.864931e-02	5.388122e-02	-5.530262e-04	-3.868073e-04	-1.494376e-03	1.677725e-03	-6.544922e-03	1.604628e+02	1.339555e+02	
6.000000e+01	-7.935942e-02	-2.821727e-02	-1.424475e-03	1.693199e-04	-1.175093e-04	-3.874273e-05	1.345414e-04	-5.786568e-02	5.432780e-02	-5.417702e-04	-3.811625e-04	-1.394956e-03	1.597144e-03	-6.431368e-03	1.604035e+02	1.333872e+02	
6.100000e+01	-7.911193e-02	-2.815441e-02	-1.527851e-03	1.595539e-04	-1.091952e-04	-3.577907e-05	1.274217e-04	-5.710984e-02	5.476768e-02	-5.302741e-04	-3.750880e-04	-1.300154e-03	1.517171e-03	-6.313815e-03	1.603838e+02	1.328429e+02	
6.200000e+01	-7.888432e-02	-2.803688e-02	-1.642212e-03	1.503392e-04	-1.010692e-04	-3.279201e-05	1.206079e-04	-5.640556e-02	5.517106e-02	-5.184599e-04	-3.684610e-04	-1.207016e-03	1.440357e-03	-6.191697e-03	1.604030e+02	1.323473e+02	
6.300000e+01	-7.866907e-02	-2.786381e-02	-1.803792e-03	1.417186e-04	-9.283824e-05	-2.963295e-05	1.142319e-04	-5.577250e-02	5.551130e-02	-5.062924e-04	-3.612089e-04	-1.112137e-03	1.368418e-03	-6.065027e-03	1.604587e+02	1.319218e+02	
6.400000e+01	-7.845712e-02	-2.763559e-02	-2.030295e-03	1.336787e-04	-8.435378e-05	-2.625331e-05	1.083467e-04	-5.520527e-02	5.578548e-02	-4.937695e-04	-3.533935e-04	-1.013785e-03	1.302138e-03	-5.934246e-03	1.605475e+02	1.315652e+02	
6.500000e+01	-7.823939e-02	-2.735068e-02	-2.324493e-03	1.261769e-04	-7.561836e-05	-2.268571e-05	1.029788e-04	-5.467827e-02	5.600975e-02	-4.808994e-04	-3.451611e-04	-9.120006e-04	1.241983e-03	-5.799922e-03	1.606673e+02	1.312581e+02	
6.600000e+01	-7.800659e-02	-2.700700e-02	-2.690265e-03	1.191599e-04	-6.665172e-05	-1.896624e-05	9.818441e-05	-5.416807e-02	5.619685e-02	-4.676729e-04	-3.366236e-04	-8.069876e-04	1.188771e-03	-5.662363e-03	1.608158e+02	1.309835e+02	
6.700000e+01	-7.774953e-02	-2.660270e-02	-3.131181e-03	1.125515e-04	-5.751165e-05	-1.514538e-05	9.405403e-05	-5.365327e-02	5.635708e-02	-4.540577e-04	-3.278601e-04	-6.993624e-04	1.143731e-03	-5.521505e-03	1.609902e+02	1.307261e+02	
6.800000e+01	-7.745985e-02	-2.613568e-02	-3.646479e-03	1.062821e-04	-4.828120e-05	-1.128723e-05	9.065379e-05	-5.311890e-02	5.649521e-02	-4.400192e-04	-3.189013e-04	-5.900073e-04	1.107810e-03	-5.377136e-03	1.611872e+02	1.304757e+02	
6.900000e+01	-7.713000e-02	-2.560393e-02	-4.227382e-03	1.002899e-04	-3.907287e-05	-7.473817e-06	8.798859e-05	-5.255718e-02	5.660963e-02	-4.255261e-04	-3.097254e-04	-4.801372e-04	1.081226e-03	-5.228972e-03	1.614044e+02	1.302284e+02	
7.000000e+01	-7.675294e-02	-2.500203e-02	-4.864895e-03	1.059436e-04	-1.292912e-04	-3.540110e-05	1.853571e-04	-5.196352e-02	5.669633e-02	-4.219284e-04	-3.290019e-04	-1.598775e-03	2.292069e-03	-5.217436e-03	1.616413e+02	1.299834e+02	
7.100000e+01	-7.632133e-02	-2.432244e-02	-5.549403e-03	9.653432e-05	-1.219372e-04	-3.184040e-05	1.856519e-04	-5.133498e-02	5.674911e-02	-4.024661e-04	-3.158239e-04	-1.518610e-03	2.312117e-03	-5.012329e-03	1.618988e+02	1.297418e+02	
7.200000e+01	-7.582723e-02	-2.355801e-02	-6.268081e-03	8.735032e-05	-1.144326e-04	-2.833133e-05	1.861533e-04	-5.067653e-02	5.675339e-02	-3.823686e-04	-3.019639e-04	-1.436703e-03	2.337157e-03	-4.800642e-03	1.621780e+02	1.295124e+02	
7.300000e+01	-7.526139e-02	-2.270842e-02	-6.999824e-03	7.848441e-05	-1.067486e-04	-2.490938e-05	1.865983e-04	-5.000648e-02	5.668003e-02	-3.617337e-04	-2.873738e-04	-1.352554e-03	2.364287e-03	-4.583336e-03	1.624772e+02	1.293167e+02	
7.400000e+01	-7.461528e-02	-2.177748e-02	-7.719671e-03	7.002009e-05	-9.892259e-05	-2.162765e-05	1.867499e-04	-4.934060e-02	5.650256e-02	-3.406964e-04	-2.720786e-04	-1.266440e-03	2.390834e-03	-4.361708e-03	1.627945e+02	1.291738e+02	
7.500000e+01	-7.388208e-02	-2.077169e-02	-8.402077e-03	6.203537e-05	-9.103818e-05	-1.854023e-05	1.864138e-04	-4.869099e-02	5.619915e-02	-3.194154e-04	-2.561657e-04	-1.179174e-03	2.414528e-03	-4.137235e-03	1.631288e+02	1.290997e+02	
7.600000e+01	-7.305501e-02	-1.970260e-02	-9.028110e-03	5.457046e-05	-8.318789e-05	-1.569159e-05	1.854797e-04	-4.806472e-02	5.575234e-02	-2.980655e-04	-2.397805e-04	-1.091677e-03	2.434055e-03	-3.911522e-03	1.634765e+02	1.291059e+02	
7.700000e+01	-7.212251e-02	-1.859068e-02	-9.607939e-03	4.761501e-05	-7.527872e-05	-1.306111e-05	1.839737e-04	-4.746280e-02	5.514754e-02	-2.768573e-04	-2.231416e-04	-1.002418e-03	2.449809e-03	-3.686655e-03	1.638197e+02	1.291993e+02	
7.800000e+01	-7.107149e-02	-1.745996e-02	-1.015971e-02	4.112178e-05	-6.716409e-05	-1.062166e-05	1.819527e-04	-4.688496e-02	5.437073e-02	-2.560046e-04	-2.064802e-04	-9.090162e-04	2.462595e-03	-3.464833e-03	1.641333e+02	1.293869e+02	
7.900000e+01	-6.988917e-02	-1.633509e-02	-1.070262e-02	3.503594e-05	-5.868175e-05	-8.350301e-06	1.794665e-04	-4.633156e-02	5.340814e-02	-2.357238e-04	-1.900253e-04	-8.086632e-04	2.473137e-03	-3.248389e-03	1.643882e+02	1.296780e+02	
8.000000e+01	-6.856480e-02	-1.524002e-02	-1.125170e-02	2.929508e-05	-4.971347e-05	-6.242488e-06	1.765596e-04	-4.580131e-02	5.224914e-02	-2.162214e-04	-1.739978e-04	-6.988745e-04	2.482084e-03	-3.039651e-03	1.645553e+02	1.300816e+02	
8.100000e+01	-6.709528e-02	-1.418958e-02	-1.180059e-02	2.385944e-05	-4.030504e-05	-4.327519e-06	1.732043e-04	-4.528531e-02	5.089470e-02	-1.976348e-04	-1.585579e-04	-5.792022e-04	2.489027e-03	-2.840104e-03	1.646206e+02	1.305998e+02	
8.200000e+01	-6.548280e-02	-1.319345e-02	-1.233417e-02	1.871287e-05	-3.057284e-05	-2.635095e-06	1.693475e-04	-4.477189e-02	4.935187e-02	-1.800667e-04	-1.438303e-04	-4.500780e-04	2.493049e-03	-2.650852e-03	1.645805e+02	1.312320e+02	
8.300000e+01	-6.373263e-02	-1.225963e-02	-1.283618e-02	1.384684e-05	-2.066456e-05	-1.186193e-06	1.649545e-04	-4.424857e-02	4.763066e-02	-1.636041e-04	-1.299215e-04	-3.123505e-04	2.493332e-03	-2.472921e-03	1.644371e+02	1.319768e+02	
8.400000e+01	-6.185166e-02	-1.139225e-02	-1.329351e-02	9.288100e-06	-1.067823e-05	2.946517e-08	1.599756e-04	-4.370389e-02	4.574184e-02	-1.483192e-04	-1.169133e-04	-1.661163e-04	2.488668e-03	-2.307334e-03	1.641959e+02	1.328344e+02	
