Pct	FAxFem(N)	FAP(N)	FDV(N)	HipTorqAP(Nm)	HipTorqDV(Nm)	FemTorsion(Nm)	TKFlex(Nm)	FAxTib(N)	FMLTib(N)	TAnkFlex(Nm)	TibTorsion(Nm)	Rhip(m)	Rknee(m)	Rankle(m)	Fem-GRFang(deg)	Tib-GRFang(deg)	
0.000000e+00	-2.749026e-02	-2.898399e-02	6.027954e-03	-3.125516e-04	-3.822439e-04	-3.344787e-04	2.941384e-04	1.101883e-03	2.812182e-02	-1.164592e-04	-1.681477e-04	-9.461592e-03	7.280737e-03	-2.882688e-03	1.328796e+02	8.843712e+01	
1.000000e+00	-2.810044e-02	-2.855719e-02	6.929496e-03	-2.949781e-04	-3.973619e-04	-3.310799e-04	2.960718e-04	7.371163e-04	2.893284e-02	-1.287826e-04	-1.906522e-04	-9.773004e-03	7.281802e-03	-3.167373e-03	1.337191e+02	8.896125e+01	
2.000000e+00	-2.878545e-02	-2.816642e-02	7.643781e-03	-2.792494e-04	-4.108218e-04	-3.278342e-04	2.991219e-04	2.512750e-04	2.978198e-02	-1.394523e-04	-2.096621e-04	-1.002190e-02	7.297009e-03	-3.401907e-03	1.346050e+02	8.964882e+01	
3.000000e+00	-2.955180e-02	-2.782661e-02	8.193409e-03	-2.653822e-04	-4.230946e-04	-3.248161e-04	3.034391e-04	-3.561315e-04	3.066454e-02	-1.487228e-04	-2.258344e-04	-1.021729e-02	7.327735e-03	-3.591500e-03	1.355323e+02	9.049279e+01	
4.000000e+00	-3.040470e-02	-2.754209e-02	8.604512e-03	-2.531926e-04	-4.346208e-04	-3.220478e-04	3.090868e-04	-1.089312e-03	3.158001e-02	-1.568883e-04	-2.398568e-04	-1.036856e-02	7.373749e-03	-3.742817e-03	1.364982e+02	9.148916e+01	
5.000000e+00	-3.134752e-02	-2.730853e-02	8.904798e-03	-2.423381e-04	-4.457943e-04	-3.195154e-04	3.160547e-04	-1.956139e-03	3.252900e-02	-1.642709e-04	-2.523980e-04	-1.048502e-02	7.433561e-03	-3.863629e-03	1.375010e+02	9.263703e+01	
6.000000e+00	-3.238163e-02	-2.711995e-02	9.119790e-03	-2.324304e-04	-4.569141e-04	-3.172098e-04	3.242660e-04	-2.970837e-03	3.350992e-02	-1.712148e-04	-2.640955e-04	-1.057390e-02	7.504162e-03	-3.962251e-03	1.385364e+02	9.394229e+01	
7.000000e+00	-3.350697e-02	-2.697078e-02	9.276487e-03	-2.230439e-04	-4.682386e-04	-3.151492e-04	3.335813e-04	-4.151521e-03	3.451862e-02	-1.781041e-04	-2.755798e-04	-1.064126e-02	7.581015e-03	-4.047618e-03	1.395953e+02	9.541383e+01	
8.000000e+00	-3.472258e-02	-2.685483e-02	9.405243e-03	-2.136650e-04	-4.799996e-04	-3.133620e-04	3.437879e-04	-5.520034e-03	3.554779e-02	-1.853982e-04	-2.874991e-04	-1.069230e-02	7.658099e-03	-4.129864e-03	1.406664e+02	9.706313e+01	
9.000000e+00	-3.602837e-02	-2.675237e-02	9.555036e-03	-2.033696e-04	-4.925435e-04	-3.117960e-04	3.545307e-04	-7.096372e-03	3.659213e-02	-1.937451e-04	-3.005992e-04	-1.073533e-02	7.727243e-03	-4.222808e-03	1.417451e+02	9.889771e+01	
1.000000e+01	-3.742369e-02	-2.663130e-02	9.784874e-03	-1.908329e-04	-5.061910e-04	-3.103181e-04	3.652949e-04	-8.900759e-03	3.764376e-02	-2.040048e-04	-3.156358e-04	-1.077856e-02	7.778393e-03	-4.343967e-03	1.428332e+02	1.009253e+02	
1.100000e+01	-3.890725e-02	-2.644802e-02	1.016050e-02	-1.743324e-04	-5.211562e-04	-3.087405e-04	3.753756e-04	-1.094898e-02	3.869276e-02	-2.172677e-04	-3.332686e-04	-1.082807e-02	7.799184e-03	-4.514174e-03	1.439377e+02	1.031492e+02	
1.200000e+01	-4.047488e-02	-2.616487e-02	1.072175e-02	-1.524913e-04	-5.372278e-04	-3.068945e-04	3.840226e-04	-1.323437e-02	3.972434e-02	-2.343685e-04	-3.534378e-04	-1.088083e-02	7.777863e-03	-4.746819e-03	1.450613e+02	1.055480e+02	
1.300000e+01	-4.211830e-02	-2.576727e-02	1.145432e-02	-1.250885e-04	-5.536449e-04	-3.046921e-04	3.907036e-04	-1.571429e-02	4.072117e-02	-2.553279e-04	-3.750083e-04	-1.092296e-02	7.708262e-03	-5.037411e-03	1.461975e+02	1.080611e+02	
1.400000e+01	-4.382876e-02	-2.524596e-02	1.233360e-02	-9.217770e-05	-5.694788e-04	-3.020883e-04	3.948598e-04	-1.833365e-02	4.167680e-02	-2.799719e-04	-3.967853e-04	-1.093850e-02	7.584436e-03	-5.377677e-03	1.473370e+02	1.106190e+02	
1.500000e+01	-4.559711e-02	-2.459210e-02	1.332903e-02	-5.398686e-05	-5.837273e-04	-2.990428e-04	3.959339e-04	-2.103286e-02	4.259552e-02	-3.079589e-04	-4.177078e-04	-1.091216e-02	7.401563e-03	-5.756964e-03	1.484726e+02	1.131530e+02	
1.600000e+01	-4.741160e-02	-2.381180e-02	1.438490e-02	-1.133131e-05	-5.953072e-04	-2.955466e-04	3.936236e-04	-2.375539e-02	4.347950e-02	-3.385733e-04	-4.368462e-04	-1.082952e-02	7.160596e-03	-6.159150e-03	1.495971e+02	1.156039e+02	
1.700000e+01	-4.925811e-02	-2.292929e-02	1.543076e-02	3.439375e-05	-6.033093e-04	-2.916103e-04	3.879827e-04	-2.646156e-02	4.431992e-02	-3.707812e-04	-4.535384e-04	-1.068143e-02	6.869133e-03	-6.564584e-03	1.507039e+02	1.179367e+02	
1.800000e+01	-5.112094e-02	-2.198837e-02	1.639745e-02	8.137066e-05	-6.072141e-04	-2.872780e-04	3.794113e-04	-2.913661e-02	4.509196e-02	-4.034112e-04	-4.674241e-04	-1.046654e-02	6.539906e-03	-6.953592e-03	1.517840e+02	1.201475e+02	
1.900000e+01	-5.298543e-02	-2.101764e-02	1.726290e-02	1.285967e-04	-6.068566e-04	-2.826182e-04	3.680064e-04	-3.178051e-02	4.577622e-02	-4.358831e-04	-4.786344e-04	-1.018927e-02	6.178915e-03	-7.318581e-03	1.528278e+02	1.222492e+02	
2.000000e+01	-5.484130e-02	-1.995961e-02	1.810366e-02	1.778810e-04	-6.015299e-04	-2.776484e-04	3.520021e-04	-3.437415e-02	4.640827e-02	-4.691738e-04	-4.880134e-04	-9.844366e-03	5.760706e-03	-7.678286e-03	1.538324e+02	1.242325e+02	
2.100000e+01	-5.667995e-02	-1.871778e-02	1.900213e-02	2.316328e-04	-5.895799e-04	-2.723563e-04	3.286350e-04	-3.687049e-02	4.705597e-02	-5.042971e-04	-4.963171e-04	-9.411856e-03	5.246219e-03	-8.050429e-03	1.547991e+02	1.260569e+02	
2.200000e+01	-5.849255e-02	-1.717821e-02	2.000782e-02	2.917663e-04	-5.682709e-04	-2.666918e-04	2.945342e-04	-3.919597e-02	4.780551e-02	-5.415266e-04	-5.040820e-04	-8.856793e-03	4.590466e-03	-8.439968e-03	1.557325e+02	1.276539e+02	
2.300000e+01	-6.026913e-02	-1.528215e-02	2.107517e-02	3.573719e-04	-5.348666e-04	-2.605909e-04	2.476252e-04	-4.127342e-02	4.871381e-02	-5.791190e-04	-5.113324e-04	-8.147100e-03	3.771834e-03	-8.821155e-03	1.566385e+02	1.289527e+02	
2.400000e+01	-6.199919e-02	-1.306477e-02	2.208097e-02	4.244898e-04	-4.880261e-04	-2.540210e-04	1.882674e-04	-4.304202e-02	4.978809e-02	-6.136494e-04	-5.178231e-04	-7.273320e-03	2.805853e-03	-9.145552e-03	1.575193e+02	1.299022e+02	
2.500000e+01	-6.367392e-02	-1.063536e-02	2.289280e-02	4.878917e-04	-4.285393e-04	-2.469908e-04	1.190511e-04	-4.445387e-02	5.101276e-02	-6.415020e-04	-5.234330e-04	-6.256509e-03	1.738100e-03	-9.365683e-03	1.583749e+02	1.304670e+02	
2.600000e+01	-6.528537e-02	-8.173736e-03	2.341052e-02	5.423699e-04	-3.599390e-04	-2.395515e-04	4.484124e-05	-4.548239e-02	5.236014e-02	-6.600999e-04	-5.281222e-04	-5.154074e-03	6.420952e-04	-9.452168e-03	1.592025e+02	1.306379e+02	
2.700000e+01	-6.682473e-02	-5.896009e-03	2.359892e-02	5.843301e-04	-2.880829e-04	-2.317720e-04	-2.808808e-05	-4.614627e-02	5.378638e-02	-6.689869e-04	-5.317524e-04	-4.050996e-03	-3.949719e-04	-9.407232e-03	1.599985e+02	1.304591e+02	
2.800000e+01	-6.828213e-02	-3.959515e-03	2.349895e-02	6.131712e-04	-2.185725e-04	-2.236942e-04	-9.475224e-05	-4.648994e-02	5.525700e-02	-6.698222e-04	-5.342167e-04	-3.022255e-03	-1.310162e-03	-9.261793e-03	1.607613e+02	1.300030e+02	
2.900000e+01	-6.964805e-02	-2.428282e-03	2.318760e-02	6.305431e-04	-1.550733e-04	-2.153304e-04	-1.525726e-04	-4.656965e-02	5.674313e-02	-6.651478e-04	-5.354587e-04	-2.111374e-03	-2.077325e-03	-9.056202e-03	1.614923e+02	1.293504e+02	
3.000000e+01	-7.091401e-02	-1.292671e-03	2.274115e-02	6.389201e-04	-9.921118e-05	-2.067014e-04	-2.009746e-04	-4.642240e-02	5.823158e-02	-6.572609e-04	-5.356165e-04	-1.332008e-03	-2.698283e-03	-8.824378e-03	1.621928e+02	1.285551e+02	
3.100000e+01	-7.207404e-02	-5.194492e-04	2.221707e-02	6.406609e-04	-5.174125e-05	-1.978588e-04	-2.399805e-04	-4.606357e-02	5.971945e-02	-6.479967e-04	-5.350805e-04	-6.860199e-04	-3.181821e-03	-8.591570e-03	1.628636e+02	1.276432e+02	
3.200000e+01	-7.312458e-02	-7.940282e-05	2.165519e-02	6.377697e-04	-1.322341e-05	-1.888841e-04	-2.695627e-04	-4.551813e-02	6.119029e-02	-6.388856e-04	-5.343160e-04	-1.733905e-04	-3.534611e-03	-8.377319e-03	1.635038e+02	1.266448e+02	
3.300000e+01	-7.406363e-02	5.710231e-05	2.107721e-02	6.319351e-04	1.609488e-05	-1.798501e-04	-2.897631e-04	-4.482361e-02	6.261402e-02	-6.311365e-04	-5.337912e-04	2.090125e-04	-3.762943e-03	-8.196112e-03	1.641146e+02	1.255978e+02	
3.400000e+01	-7.488809e-02	-7.524996e-05	2.049411e-02	6.243938e-04	3.650333e-05	-1.708369e-04	-3.010347e-04	-4.401542e-02	6.395996e-02	-6.254412e-04	-5.338768e-04	4.701508e-04	-3.877227e-03	-8.055476e-03	1.646949e+02	1.245347e+02	
3.500000e+01	-7.559527e-02	-4.415539e-04	1.990664e-02	6.159560e-04	4.853805e-05	-1.619173e-04	-3.039470e-04	-4.313070e-02	6.519710e-02	-6.220749e-04	-5.347926e-04	6.209007e-04	-3.888102e-03	-7.957607e-03	1.652437e+02	1.234858e+02	
3.600000e+01	-7.618398e-02	-1.009070e-03	1.931184e-02	6.070493e-04	5.277603e-05	-1.531816e-04	-2.990606e-04	-4.220632e-02	6.629911e-02	-6.209779e-04	-5.366007e-04	6.714505e-04	-3.804841e-03	-7.900479e-03	1.657572e+02	1.224781e+02	
3.700000e+01	-7.665714e-02	-1.737344e-03	1.870196e-02	5.977428e-04	5.030135e-05	-1.446907e-04	-2.873697e-04	-4.128098e-02	6.724553e-02	-6.216427e-04	-5.390478e-04	6.373339e-04	-3.641064e-03	-7.876408e-03	1.662327e+02	1.215366e+02	
3.800000e+01	-7.702246e-02	-2.580220e-03	1.806472e-02	5.877716e-04	4.289664e-05	-1.364179e-04	-2.704951e-04	-4.038799e-02	6.802649e-02	-6.231585e-04	-5.415503e-04	5.419349e-04	-3.417300e-03	-7.872676e-03	1.666714e+02	1.206800e+02	
3.900000e+01	-7.728993e-02	-3.502566e-03	1.738799e-02	5.768165e-04	3.219531e-05	-1.283080e-04	-2.499163e-04	-3.954564e-02	6.864560e-02	-6.247142e-04	-5.435859e-04	4.059986e-04	-3.151567e-03	-7.877951e-03	1.670751e+02	1.199134e+02	
4.000000e+01	-7.746918e-02	-4.480356e-03	1.666197e-02	5.645822e-04	1.960402e-05	-1.202959e-04	-2.269259e-04	-3.876349e-02	6.911213e-02	-6.256720e-04	-5.447284e-04	2.470038e-04	-2.859187e-03	-7.883246e-03	1.674441e+02	1.192359e+02	
4.100000e+01	-7.756557e-02	-5.484841e-03	1.589886e-02	5.508343e-04	6.538388e-06	-1.124439e-04	-2.031346e-04	-3.805775e-02	6.943198e-02	-6.253892e-04	-5.444909e-04	8.238068e-05	-2.559403e-03	-7.879617e-03	1.677661e+02	1.186535e+02	
4.200000e+01	-7.758328e-02	-6.493633e-03	1.513044e-02	5.354189e-04	-5.861947e-06	-1.049090e-04	-1.801239e-04	-3.744150e-02	6.961486e-02	-6.233926e-04	-5.424991e-04	-7.391073e-05	-2.271104e-03	-7.860086e-03	1.680183e+02	1.181697e+02	
4.300000e+01	-7.752897e-02	-7.494630e-03	1.439589e-02	5.182988e-04	-1.681400e-05	-9.786518e-05	-1.591879e-04	-3.692247e-02	6.967578e-02	-6.194663e-04	-5.385785e-04	-2.122723e-04	-2.009706e-03	-7.820602e-03	1.681765e+02	1.177838e+02	
4.400000e+01	-7.741268e-02	-8.487448e-03	1.372752e-02	4.995537e-04	-2.606852e-05	-9.144352e-05	-1.409682e-04	-3.649611e-02	6.963621e-02	-6.136744e-04	-5.328175e-04	-3.296591e-04	-1.782666e-03	-7.760446e-03	1.682234e+02	1.174856e+02	
4.500000e+01	-7.724899e-02	-9.486566e-03	1.311988e-02	4.794009e-04	-3.410534e-05	-8.560918e-05	-1.248733e-04	-3.613700e-02	6.952449e-02	-6.064262e-04	-5.256701e-04	-4.321104e-04	-1.582129e-03	-7.683343e-03	1.681630e+02	1.172486e+02	
4.600000e+01	-7.705102e-02	-1.050511e-02	1.255584e-02	4.580205e-04	-4.134335e-05	-8.027340e-05	-1.102339e-04	-3.582456e-02	6.936216e-02	-5.980761e-04	-5.175254e-04	-5.248551e-04	-1.399423e-03	-7.592595e-03	1.680049e+02	1.170517e+02	
4.700000e+01	-7.683011e-02	-1.155250e-02	1.201238e-02	4.355742e-04	-4.805792e-05	-7.532817e-05	-9.646332e-05	-3.554468e-02	6.916458e-02	-5.889088e-04	-5.086939e-04	-6.112921e-04	-1.227004e-03	-7.490864e-03	1.677610e+02	1.168801e+02	
4.800000e+01	-7.659587e-02	-1.263306e-02	1.146815e-02	4.122157e-04	-5.452348e-05	-7.071071e-05	-8.300398e-05	-3.528734e-02	6.894381e-02	-5.791350e-04	-4.994239e-04	-6.948040e-04	-1.057737e-03	-7.380038e-03	1.674422e+02	1.167228e+02	
4.900000e+01	-7.635755e-02	-1.374544e-02	1.090301e-02	3.881320e-04	-6.103278e-05	-6.640769e-05	-6.930168e-05	-3.504482e-02	6.871107e-02	-5.689255e-04	-4.899407e-04	-7.790037e-04	-8.845454e-04	-7.261591e-03	1.670599e+02	1.165707e+02	
5.000000e+01	-7.612368e-02	-1.488637e-02	1.029549e-02	3.635066e-04	-6.788210e-05	-6.243781e-05	-5.478945e-05	-3.480740e-02	6.847815e-02	-5.584229e-04	-4.804641e-04	-8.675487e-04	-7.002217e-04	-7.136772e-03	1.666253e+02	1.164136e+02	
5.100000e+01	-7.590037e-02	-1.604452e-02	9.627026e-03	3.385498e-04	-7.515196e-05	-5.882718e-05	-3.916324e-05	-3.457325e-02	6.825127e-02	-5.476930e-04	-4.711098e-04	-9.613580e-04	-5.009835e-04	-7.006192e-03	1.661515e+02	1.162487e+02	
5.200000e+01	-7.568818e-02	-1.719152e-02	8.914707e-03	3.134873e-04	-8.245364e-05	-5.565138e-05	-2.303420e-05	-3.436433e-02	6.802400e-02	-5.366040e-04	-4.616830e-04	-1.055389e-03	-2.948328e-04	-6.868416e-03	1.656483e+02	1.160947e+02	
5.300000e+01	-7.548463e-02	-1.829522e-02	8.186437e-03	2.885790e-04	-8.932232e-05	-5.294595e-05	-7.214208e-06	-3.420758e-02	6.778487e-02	-5.250194e-04	-4.519265e-04	-1.143687e-03	-9.237103e-05	-6.722370e-03	1.651296e+02	1.159761e+02	
5.400000e+01	-7.528649e-02	-1.932706e-02	7.476304e-03	2.640750e-04	-9.544306e-05	-5.072542e-05	7.572314e-06	-3.412457e-02	6.752381e-02	-5.128486e-04	-4.416243e-04	-1.222275e-03	9.697353e-05	-6.567708e-03	1.646104e+02	1.159133e+02	
5.500000e+01	-7.509227e-02	-2.026895e-02	6.802320e-03	2.402091e-04	-1.006695e-04	-4.893238e-05	2.097277e-05	-3.412463e-02	6.723563e-02	-5.001140e-04	-4.307110e-04	-1.289368e-03	2.686180e-04	-6.405430e-03	1.641076e+02	1.159169e+02	
5.600000e+01	-7.490155e-02	-2.111427e-02	6.159712e-03	2.171654e-04	-1.049780e-04	-4.745177e-05	3.303213e-05	-3.420411e-02	6.691982e-02	-4.869212e-04	-4.192629e-04	-1.344767e-03	4.231413e-04	-6.237457e-03	1.636355e+02	1.159862e+02	
5.700000e+01	-7.471311e-02	-2.185571e-02	5.540522e-03	1.951470e-04	-1.083201e-04	-4.615829e-05	4.380404e-05	-3.435970e-02	6.657446e-02	-4.733843e-04	-4.073659e-04	-1.387987e-03	5.612942e-04	-6.065830e-03	1.632072e+02	1.161216e+02	
5.800000e+01	-7.452290e-02	-2.248688e-02	4.934875e-03	1.743224e-04	-1.106228e-04	-4.492338e-05	5.333642e-05	-3.458721e-02	6.619471e-02	-4.595941e-04	-3.950871e-04	-1.418279e-03	6.838186e-04	-5.892390e-03	1.628328e+02	1.163235e+02	
5.900000e+01	-7.432458e-02	-2.300370e-02	4.327944e-03	1.548186e-04	-1.117846e-04	-4.361283e-05	6.170264e-05	-3.487911e-02	6.577478e-02	-4.456276e-04	-3.824940e-04	-1.434546e-03	7.918379e-04	-5.718797e-03	1.625191e+02	1.165904e+02	
6.000000e+01	-7.411215e-02	-2.340541e-02	3.706757e-03	1.367117e-04	-1.117654e-04	-4.213443e-05	6.901237e-05	-3.522375e-02	6.531185e-02	-4.315518e-04	-3.696678e-04	-1.436417e-03	8.869515e-04	-5.546332e-03	1.622686e+02	1.169170e+02	
6.100000e+01	-7.388230e-02	-2.369222e-02	3.061590e-03	1.200850e-04	-1.105933e-04	-4.044070e-05	7.540241e-05	-3.560776e-02	6.480783e-02	-4.174546e-04	-3.567246e-04	-1.424281e-03	9.710738e-04	-5.376210e-03	1.620819e+02	1.172953e+02	
6.200000e+01	-7.363379e-02	-2.386429e-02	2.391676e-03	1.050089e-04	-1.084215e-04	-3.854954e-05	8.102901e-05	-3.601776e-02	6.426800e-02	-4.034215e-04	-3.437867e-04	-1.400047e-03	1.046328e-03	-5.209383e-03	1.619587e+02	1.177166e+02	
6.300000e+01	-7.336508e-02	-2.391861e-02	1.704093e-03	9.154731e-05	-1.054528e-04	-3.650632e-05	8.600711e-05	-3.644550e-02	6.369509e-02	-3.895116e-04	-3.309318e-04	-1.366244e-03	1.114306e-03	-5.046504e-03	1.619002e+02	1.181764e+02	
6.400000e+01	-7.307158e-02	-2.385329e-02	1.002526e-03	7.970372e-05	-1.018016e-04	-3.432536e-05	9.040431e-05	-3.688494e-02	6.308694e-02	-3.757394e-04	-3.181798e-04	-1.324285e-03	1.176023e-03	-4.887801e-03	1.619065e+02	1.186735e+02	
6.500000e+01	-7.274606e-02	-2.366616e-02	2.880220e-04	6.946198e-05	-9.747578e-05	-3.198640e-05	9.421364e-05	-3.733263e-02	6.243674e-02	-3.620944e-04	-3.055086e-04	-1.274203e-03	1.231560e-03	-4.733296e-03	1.619778e+02	1.192100e+02	
6.600000e+01	-7.238038e-02	-2.335651e-02	-4.211536e-04	6.077992e-05	-9.243419e-05	-2.947404e-05	9.718661e-05	-3.779029e-02	6.173322e-02	-3.485514e-04	-2.928485e-04	-1.215332e-03	1.277818e-03	-4.582783e-03	1.621129e+02	1.197932e+02	
6.700000e+01	-7.196807e-02	-2.292394e-02	-1.094851e-03	7.092401e-05	-1.859711e-04	-5.815827e-05	1.982818e-04	-3.826334e-02	6.096326e-02	-3.523930e-04	-3.111832e-04	-2.461929e-03	2.624901e-03	-4.665060e-03	1.623130e+02	1.204336e+02	
6.800000e+01	-7.150412e-02	-2.236928e-02	-1.699693e-03	6.028469e-05	-1.805450e-04	-5.504853e-05	1.995925e-04	-3.875747e-02	6.011311e-02	-3.340385e-04	-2.940052e-04	-2.409170e-03	2.663339e-03	-4.457370e-03	1.625813e+02	1.211430e+02	
6.900000e+01	-7.098179e-02	-2.169693e-02	-2.218319e-03	5.133049e-05	-1.740312e-04	-5.159175e-05	1.988129e-04	-3.927609e-02	5.916692e-02	-3.160210e-04	-2.768384e-04	-2.343635e-03	2.677365e-03	-4.255777e-03	1.629198e+02	1.219327e+02	
7.000000e+01	-7.038844e-02	-2.092184e-02	-2.672148e-03	4.394649e-05	-1.665486e-04	-4.783556e-05	1.963114e-04	-3.980726e-02	5.811244e-02	-2.984033e-04	-2.597972e-04	-2.266566e-03	2.671609e-03	-4.060981e-03	1.633193e+02	1.228021e+02	
7.100000e+01	-6.970909e-02	-2.006098e-02	-3.090898e-03	3.798174e-05	-1.581748e-04	-4.383566e-05	1.925020e-04	-4.033557e-02	5.693815e-02	-2.812333e-04	-2.429914e-04	-2.178594e-03	2.651393e-03	-3.873519e-03	1.637657e+02	1.237490e+02	
7.200000e+01	-6.892962e-02	-1.913290e-02	-3.501833e-03	3.324809e-05	-1.490390e-04	-3.967990e-05	1.878171e-04	-4.084073e-02	5.563804e-02	-2.645411e-04	-2.265301e-04	-2.080929e-03	2.622361e-03	-3.693605e-03	1.642419e+02	1.247664e+02	
7.300000e+01	-6.803902e-02	-1.815351e-02	-3.934439e-03	2.954241e-05	-1.393478e-04	-3.547109e-05	1.827868e-04	-4.129294e-02	5.421882e-02	-2.483182e-04	-2.105180e-04	-1.975751e-03	2.591655e-03	-3.520797e-03	1.647301e+02	1.258366e+02	
7.400000e+01	-6.702917e-02	-1.713543e-02	-4.418873e-03	2.665052e-05	-1.293800e-04	-3.131797e-05	1.780162e-04	-4.165252e-02	5.270203e-02	-2.325115e-04	-1.950505e-04	-1.866262e-03	2.567822e-03	-3.353897e-03	1.652111e+02	1.269289e+02	
7.500000e+01	-6.589237e-02	-1.608673e-02	-4.985017e-03	2.440634e-05	-1.193525e-04	-2.729187e-05	1.740396e-04	-4.187747e-02	5.111685e-02	-2.170586e-04	-1.802079e-04	-1.754911e-03	2.559008e-03	-3.191542e-03	1.656628e+02	1.280064e+02	
7.600000e+01	-6.462110e-02	-1.500896e-02	-5.645545e-03	2.270684e-05	-1.093870e-04	-2.342258e-05	1.711047e-04	-4.193147e-02	4.949253e-02	-2.018864e-04	-1.660105e-04	-1.642916e-03	2.569873e-03	-3.032193e-03	1.660637e+02	1.290341e+02	
7.700000e+01	-6.321358e-02	-1.389255e-02	-6.355705e-03	2.162576e-05	-9.942975e-05	-1.967752e-05	1.686668e-04	-4.180936e-02	4.783649e-02	-1.869833e-04	-1.523709e-04	-1.528901e-03	2.593537e-03	-2.875185e-03	1.664134e+02	1.300077e+02	
7.800000e+01	-6.167163e-02	-1.272988e-02	-7.056280e-03	2.125204e-05	-8.945737e-05	-1.603364e-05	1.660683e-04	-4.151599e-02	4.614762e-02	-1.723723e-04	-1.392028e-04	-1.411760e-03	2.620786e-03	-2.720271e-03	1.667210e+02	1.309333e+02	
7.900000e+01	-6.000118e-02	-1.151760e-02	-7.691063e-03	2.168434e-05	-7.952153e-05	-1.248512e-05	1.627734e-04	-4.105995e-02	4.442269e-02	-1.581262e-04	-1.264760e-04	-1.291378e-03	2.643335e-03	-2.567867e-03	1.670027e+02	1.318196e+02	
8.000000e+01	-5.820883e-02	-1.026321e-02	-8.221639e-03	2.304416e-05	-6.974666e-05	-9.042685e-06	1.585164e-04	-4.045674e-02	4.265109e-02	-1.444450e-04	-1.142898e-04	-1.168760e-03	2.656293e-03	-2.420497e-03	1.672698e+02	1.326831e+02	
8.100000e+01	-5.629773e-02	-8.984245e-03	-8.636744e-03	2.546059e-05	-6.018359e-05	-5.698410e-06	1.532481e-04	-3.973159e-02	4.080967e-02	-1.316361e-04	-1.028376e-04	-1.043756e-03	2.657760e-03	-2.282948e-03	1.675181e+02	1.335558e+02	
8.200000e+01	-5.426868e-02	-7.701902e-03	-8.937858e-03	2.896043e-05	-5.077561e-05	-2.436479e-06	1.469473e-04	-3.891187e-02	3.886955e-02	-1.199478e-04	-9.226315e-05	-9.142758e-04	2.645962e-03	-2.159803e-03	1.677343e+02	1.344796e+02	
8.300000e+01	-5.212014e-02	-6.437819e-03	-9.141590e-03	3.349807e-05	-4.132645e-05	7.707841e-07	1.396107e-04	-3.802107e-02	3.680321e-02	-1.095614e-04	-8.266038e-05	-7.752693e-04	2.619046e-03	-2.055333e-03	1.678923e+02	1.355009e+02	
8.400000e+01	-4.984776e-02	-5.210742e-03	-9.291784e-03	3.890663e-05	-3.155299e-05	3.953989e-06	1.314249e-04	-3.705160e-02	3.461668e-02	-1.005018e-04	-7.406276e-05	-6.190088e-04	2.578304e-03	-1.971651e-03	1.679367e+02	1.366256e+02	
