Pct	FAxFem(N)	FAP(N)	FDV(N)	HipTorqAP(Nm)	HipTorqDV(Nm)	FemTorsion(Nm)	TKFlex(Nm)	FAxTib(N)	FMLTib(N)	TAnkFlex(Nm)	TibTorsion(Nm)	Rhip(m)	Rknee(m)	Rankle(m)	Fem-GRFang(deg)	Tib-GRFang(deg)	
0.000000e+00	2.928824e-04	-3.144580e-03	-2.457151e-04	-4.105521e-05	5.510194e-06	-2.471763e-05	-2.152072e-06	-9.426199e-05	-3.705006e-04	-3.887290e-06	-1.245773e-05	1.739475e-03	-6.793727e-04	-1.227151e-03	8.469500e+01	9.170523e+01	
1.000000e+00	9.676401e-05	-3.742289e-03	3.380195e-05	-4.759277e-05	3.522782e-07	-3.024942e-05	-8.128927e-07	7.608274e-05	-6.868232e-05	-5.967636e-06	-1.749867e-05	9.409914e-05	-2.171366e-04	-1.594051e-03	8.851893e+01	8.883553e+01	
2.000000e+00	-1.589422e-04	-4.369800e-03	3.934154e-04	-5.390214e-05	-6.179729e-06	-3.648021e-05	8.421439e-07	2.543652e-04	3.396126e-04	-8.607197e-06	-2.348749e-05	-1.407570e-03	1.918170e-04	-1.960480e-03	9.207474e+01	8.667861e+01	
3.000000e+00	-5.092775e-04	-5.052651e-03	7.848472e-04	-6.006180e-05	-1.372921e-05	-4.364919e-05	3.131427e-06	3.836664e-04	8.533163e-04	-1.206358e-05	-3.051400e-05	-2.671809e-03	6.093997e-04	-2.347666e-03	9.568792e+01	8.571809e+01	
4.000000e+00	-1.005588e-03	-5.864369e-03	1.165803e-03	-6.679408e-05	-2.223967e-05	-5.226082e-05	6.553933e-06	4.174359e-04	1.481908e-03	-1.671222e-05	-3.893552e-05	-3.668038e-03	1.080955e-03	-2.756384e-03	9.954688e+01	8.605217e+01	
5.000000e+00	-1.708093e-03	-6.855475e-03	1.559267e-03	-7.457525e-05	-3.257854e-05	-6.267733e-05	1.161147e-05	3.558258e-04	2.285231e-03	-2.299587e-05	-4.930850e-05	-4.502857e-03	1.604884e-03	-3.178384e-03	1.036556e+02	8.718105e+01	
6.000000e+00	-2.661633e-03	-7.990054e-03	1.984188e-03	-8.257080e-05	-4.532930e-05	-7.452099e-05	1.860673e-05	1.957957e-04	3.314054e-03	-3.129739e-05	-6.185921e-05	-5.238989e-03	2.150496e-03	-3.617234e-03	1.079160e+02	8.870336e+01	
7.000000e+00	-3.928014e-03	-9.261084e-03	2.431487e-03	-9.012882e-05	-6.079157e-05	-8.753755e-05	2.797304e-05	-1.024079e-04	4.618543e-03	-4.210298e-05	-7.694832e-05	-5.873948e-03	2.702878e-03	-4.068175e-03	1.123054e+02	9.056699e+01	
8.000000e+00	-5.591751e-03	-1.061734e-02	2.863921e-03	-9.597673e-05	-7.908400e-05	-1.010045e-04	4.037371e-05	-6.145530e-04	6.252364e-03	-5.578874e-05	-9.460108e-05	-6.410394e-03	3.272614e-03	-4.522126e-03	1.169528e+02	9.285537e+01	
9.000000e+00	-7.732758e-03	-1.208504e-02	3.245802e-03	-9.979675e-05	-1.002592e-04	-1.147994e-04	5.639371e-05	-1.414735e-03	8.266154e-03	-7.285594e-05	-1.152401e-04	-6.815796e-03	3.833743e-03	-4.952875e-03	1.217145e+02	9.551905e+01	
1.000000e+01	-1.036571e-02	-1.360926e-02	3.515645e-03	-1.006714e-04	-1.235207e-04	-1.280280e-04	7.606755e-05	-2.571337e-03	1.063936e-02	-9.340333e-05	-1.386120e-04	-7.072548e-03	4.355475e-03	-5.348087e-03	1.264072e+02	9.846645e+01	
1.100000e+01	-1.343473e-02	-1.516506e-02	3.603116e-03	-9.853100e-05	-1.474295e-04	-1.399923e-04	9.886855e-05	-4.131968e-03	1.328161e-02	-1.172246e-04	-1.642751e-04	-7.164431e-03	4.804579e-03	-5.696603e-03	1.307583e+02	1.015835e+02	
1.200000e+01	-1.685183e-02	-1.666468e-02	3.492285e-03	-9.247219e-05	-1.706891e-04	-1.496300e-04	1.236748e-04	-6.107012e-03	1.608989e-02	-1.441330e-04	-1.916096e-04	-7.125100e-03	5.162576e-03	-6.016562e-03	1.347044e+02	1.047692e+02	
1.300000e+01	-2.053498e-02	-1.806461e-02	3.274346e-03	-8.137858e-05	-1.924744e-04	-1.563436e-04	1.484272e-04	-8.465763e-03	1.899310e-02	-1.747864e-04	-2.207681e-04	-6.987590e-03	5.388500e-03	-6.345444e-03	1.382023e+02	1.078991e+02	
1.400000e+01	-2.443909e-02	-1.935814e-02	3.050229e-03	-6.435629e-05	-2.118745e-04	-1.597929e-04	1.708936e-04	-1.118227e-02	2.194379e-02	-2.099073e-04	-2.516664e-04	-6.763561e-03	5.455351e-03	-6.700763e-03	1.412750e+02	1.109140e+02	
1.500000e+01	-2.853063e-02	-2.063591e-02	2.634014e-03	-4.400686e-05	-2.268629e-04	-1.600248e-04	1.915293e-04	-1.430569e-02	2.482503e-02	-2.480916e-04	-2.824819e-04	-6.424944e-03	5.424267e-03	-7.026159e-03	1.439021e+02	1.139005e+02	
1.600000e+01	-3.277301e-02	-2.203202e-02	1.796488e-03	-2.407344e-05	-2.363804e-04	-1.575897e-04	2.123160e-04	-1.793745e-02	2.748718e-02	-2.875190e-04	-3.117631e-04	-5.979607e-03	5.370860e-03	-7.273237e-03	1.460007e+02	1.169849e+02	
1.700000e+01	-3.711276e-02	-2.352195e-02	5.442650e-04	-4.149128e-06	-2.403811e-04	-1.522920e-04	2.331023e-04	-2.222916e-02	2.972403e-02	-3.283831e-04	-3.388293e-04	-5.470367e-03	5.304723e-03	-7.473032e-03	1.476267e+02	1.203892e+02	
1.800000e+01	-4.149157e-02	-2.512978e-02	-1.287674e-03	1.290783e-05	-2.396995e-04	-1.447758e-04	2.568950e-04	-2.731609e-02	3.125764e-02	-3.682964e-04	-3.612354e-04	-4.939670e-03	5.294031e-03	-7.589766e-03	1.487651e+02	1.242583e+02	
1.900000e+01	-4.590495e-02	-2.674193e-02	-3.455437e-03	2.912166e-05	-2.357438e-04	-1.351405e-04	2.817974e-04	-3.311775e-02	3.197529e-02	-4.077754e-04	-3.777519e-04	-4.428073e-03	5.293115e-03	-7.659412e-03	1.495704e+02	1.284671e+02	
2.000000e+01	-5.037855e-02	-2.839104e-02	-5.577772e-03	4.657425e-05	-2.293399e-04	-1.240889e-04	3.034540e-04	-3.926974e-02	3.204681e-02	-4.493056e-04	-3.893893e-04	-3.947594e-03	5.223308e-03	-7.733829e-03	1.501301e+02	1.325276e+02	
2.100000e+01	-5.489438e-02	-3.004447e-02	-7.816294e-03	6.461474e-05	-2.211273e-04	-1.118257e-04	3.246223e-04	-4.540789e-02	3.182155e-02	-4.914130e-04	-3.977380e-04	-3.506355e-03	5.147447e-03	-7.792203e-03	1.505105e+02	1.360562e+02	
2.200000e+01	-5.936307e-02	-3.155781e-02	-1.059056e-02	8.206152e-05	-2.124772e-04	-9.831426e-05	3.522412e-04	-5.138316e-02	3.155795e-02	-5.302559e-04	-4.048948e-04	-3.121955e-03	5.175527e-03	-7.791120e-03	1.507188e+02	1.390236e+02	
2.300000e+01	-6.366990e-02	-3.281384e-02	-1.375363e-02	1.002795e-04	-2.044041e-04	-8.368280e-05	3.853687e-04	-5.704131e-02	3.145324e-02	-5.654121e-04	-4.125762e-04	-2.802485e-03	5.283603e-03	-7.752090e-03	1.508030e+02	1.414502e+02	
2.400000e+01	-6.771970e-02	-3.388357e-02	-1.674397e-02	1.206460e-04	-1.969582e-04	-6.871788e-05	4.166355e-04	-6.216666e-02	3.164845e-02	-5.996009e-04	-4.217827e-04	-2.539670e-03	5.372291e-03	-7.731532e-03	1.508338e+02	1.432838e+02	
2.500000e+01	-7.148030e-02	-3.490735e-02	-1.916581e-02	1.424646e-04	-1.906971e-04	-5.492818e-05	4.414180e-04	-6.664516e-02	3.217427e-02	-6.344769e-04	-4.329015e-04	-2.330556e-03	5.394677e-03	-7.754098e-03	1.508772e+02	1.445367e+02	
2.600000e+01	-7.490516e-02	-3.579322e-02	-2.105790e-02	1.637916e-04	-1.869339e-04	-4.327950e-05	4.617003e-04	-7.047297e-02	3.298150e-02	-6.670289e-04	-4.448148e-04	-2.182614e-03	5.390748e-03	-7.788136e-03	1.509956e+02	1.453694e+02	
2.700000e+01	-7.796232e-02	-3.633351e-02	-2.278604e-02	1.811632e-04	-1.886453e-04	-3.496759e-05	4.855814e-04	-7.374207e-02	3.405047e-02	-6.910052e-04	-4.565094e-04	-2.120085e-03	5.457193e-03	-7.765843e-03	1.511847e+02	1.459704e+02	
2.800000e+01	-8.065123e-02	-3.640603e-02	-2.449563e-02	1.932568e-04	-1.971532e-04	-3.029861e-05	5.166410e-04	-7.649583e-02	3.539837e-02	-7.036352e-04	-4.672801e-04	-2.147280e-03	5.626958e-03	-7.663591e-03	1.514508e+02	1.464236e+02	
2.900000e+01	-8.301190e-02	-3.653447e-02	-2.553421e-02	2.014573e-04	-2.079545e-04	-2.955547e-05	5.420349e-04	-7.864524e-02	3.684965e-02	-7.143958e-04	-4.783317e-04	-2.207076e-03	5.752757e-03	-7.582069e-03	1.517665e+02	1.465828e+02	
3.000000e+01	-8.511117e-02	-3.770413e-02	-2.460352e-02	2.124387e-04	-2.104034e-04	-3.179767e-05	5.339495e-04	-8.021183e-02	3.762058e-02	-7.452683e-04	-4.909020e-04	-2.185209e-03	5.545497e-03	-7.740213e-03	1.521224e+02	1.464149e+02	
3.100000e+01	-8.708461e-02	-3.942964e-02	-2.210965e-02	2.280437e-04	-2.031751e-04	-3.409505e-05	4.951774e-04	-8.167545e-02	3.743913e-02	-7.898732e-04	-4.964717e-04	-2.070709e-03	5.046723e-03	-8.050187e-03	1.525663e+02	1.463477e+02	
3.200000e+01	-8.907499e-02	-4.088497e-02	-1.895419e-02	2.491796e-04	-1.874871e-04	-3.303294e-05	4.378762e-04	-8.352016e-02	3.630423e-02	-8.345411e-04	-4.852968e-04	-1.878142e-03	4.386403e-03	-8.359972e-03	1.531643e+02	1.467890e+02	
3.300000e+01	-9.113667e-02	-4.221243e-02	-1.458005e-02	2.791252e-04	-1.550347e-04	-2.715405e-05	3.466666e-04	-8.552453e-02	3.469907e-02	-8.836470e-04	-4.548961e-04	-1.527575e-03	3.415748e-03	-8.706680e-03	1.538939e+02	1.474246e+02	
3.400000e+01	-9.322640e-02	-4.354588e-02	-7.616118e-03	3.139538e-04	-9.117669e-05	-1.694005e-05	1.903123e-04	-8.675612e-02	3.496488e-02	-9.358844e-04	-4.098070e-04	-8.836954e-04	1.844530e-03	-9.070704e-03	1.546303e+02	1.472301e+02	
3.500000e+01	-9.522254e-02	-4.384172e-02	1.555599e-03	3.334227e-04	4.375449e-06	-3.432431e-06	-2.436365e-05	-8.693568e-02	3.888365e-02	-9.560168e-04	-3.558716e-04	4.173373e-05	-2.323844e-04	-9.118642e-03	1.552644e+02	1.460174e+02	
3.600000e+01	-9.697561e-02	-4.237660e-02	1.108986e-02	3.179276e-04	1.089209e-04	1.123917e-05	-2.494308e-04	-8.639781e-02	4.541667e-02	-9.144668e-04	-2.987335e-04	1.023599e-03	-2.344060e-03	-8.593827e-03	1.556915e+02	1.442855e+02	
3.700000e+01	-9.833300e-02	-3.935310e-02	1.977714e-02	2.663215e-04	1.970940e-04	2.531377e-05	-4.445106e-04	-8.504645e-02	5.317534e-02	-8.148682e-04	-2.437755e-04	1.829248e-03	-4.125545e-03	-7.562869e-03	1.558725e+02	1.421224e+02	
3.800000e+01	-9.918655e-02	-3.575962e-02	2.647640e-02	1.946918e-04	2.481155e-04	3.748268e-05	-5.755282e-04	-8.250792e-02	6.108530e-02	-6.884717e-04	-1.992796e-04	2.282375e-03	-5.294193e-03	-6.333142e-03	1.558394e+02	1.393742e+02	
3.900000e+01	-9.946476e-02	-3.309616e-02	3.048935e-02	1.258200e-04	2.596448e-04	4.782678e-05	-6.321392e-04	-7.919070e-02	6.746607e-02	-5.785486e-04	-1.665454e-04	2.378343e-03	-5.790386e-03	-5.299497e-03	1.556573e+02	1.365010e+02	
4.000000e+01	-9.910867e-02	-3.177169e-02	3.258885e-02	6.722780e-05	2.452765e-04	5.652356e-05	-6.380053e-04	-7.588166e-02	7.159983e-02	-4.975651e-04	-1.400147e-04	2.249013e-03	-5.850060e-03	-4.562322e-03	1.553342e+02	1.340896e+02	
4.100000e+01	-9.812986e-02	-3.112019e-02	3.395940e-02	1.576784e-05	2.185281e-04	6.384568e-05	-6.218566e-04	-7.321264e-02	7.363844e-02	-4.330990e-04	-1.120574e-04	2.015889e-03	-5.736534e-03	-3.995274e-03	1.548548e+02	1.324834e+02	
4.200000e+01	-9.665238e-02	-2.982415e-02	3.581961e-02	-3.470176e-05	1.855156e-04	7.010535e-05	-6.046636e-04	-7.142230e-02	7.432081e-02	-3.604458e-04	-7.369609e-05	1.728874e-03	-5.635038e-03	-3.359100e-03	1.542545e+02	1.317288e+02	
4.300000e+01	-9.489121e-02	-2.724706e-02	3.832410e-02	-8.303009e-05	1.444164e-04	7.500143e-05	-5.856448e-04	-7.006602e-02	7.459110e-02	-2.724045e-04	-2.866597e-05	1.363665e-03	-5.530003e-03	-2.572204e-03	1.536396e+02	1.314224e+02	
4.400000e+01	-9.304631e-02	-2.466018e-02	4.019324e-02	-1.208555e-04	9.627642e-05	7.772223e-05	-5.503446e-04	-6.851561e-02	7.469085e-02	-1.951706e-04	6.520926e-06	9.229555e-04	-5.275888e-03	-1.871006e-03	1.531244e+02	1.310583e+02	
4.500000e+01	-9.125485e-02	-2.468351e-02	4.005446e-02	-1.435837e-04	5.075177e-05	7.675098e-05	-4.942287e-04	-6.647751e-02	7.424654e-02	-1.677275e-04	1.615097e-05	4.943204e-04	-4.813770e-03	-1.633660e-03	1.527253e+02	1.303526e+02	
4.600000e+01	-8.955661e-02	-2.572247e-02	3.920660e-02	-1.591508e-04	7.752732e-06	7.190067e-05	-4.355455e-04	-6.408938e-02	7.382476e-02	-1.619340e-04	1.284203e-05	7.669138e-05	-4.308492e-03	-1.601879e-03	1.523637e+02	1.293447e+02	
4.700000e+01	-8.804903e-02	-2.631442e-02	3.863630e-02	-1.712579e-04	-3.514703e-05	6.464466e-05	-3.829859e-04	-6.151787e-02	7.389822e-02	-1.552114e-04	7.126486e-06	-3.525677e-04	-3.841817e-03	-1.556960e-03	1.520357e+02	1.281047e+02	
4.800000e+01	-8.682094e-02	-2.649754e-02	3.826466e-02	-1.812942e-04	-7.592287e-05	5.673045e-05	-3.355870e-04	-5.903035e-02	7.427972e-02	-1.451559e-04	1.954477e-06	-7.707140e-04	-3.406636e-03	-1.473518e-03	1.518049e+02	1.268151e+02	
4.900000e+01	-8.589432e-02	-2.654182e-02	3.782034e-02	-1.886760e-04	-1.137875e-04	4.791541e-05	-2.893843e-04	-5.693280e-02	7.461145e-02	-1.345521e-04	-3.589452e-06	-1.166657e-03	-2.967041e-03	-1.379556e-03	1.517233e+02	1.257133e+02	
5.000000e+01	-8.521376e-02	-2.641285e-02	3.729106e-02	-1.916728e-04	-1.496633e-04	3.748981e-05	-2.437944e-04	-5.534305e-02	7.476065e-02	-1.256977e-04	-1.079680e-05	-1.547810e-03	-2.521310e-03	-1.299959e-03	1.517968e+02	1.249147e+02	
5.100000e+01	-8.469353e-02	-2.638823e-02	3.637949e-02	-1.913820e-04	-1.808889e-04	2.584663e-05	-1.984568e-04	-5.423519e-02	7.453191e-02	-1.214711e-04	-2.056677e-05	-1.886636e-03	-2.069865e-03	-1.266920e-03	1.520476e+02	1.244483e+02	
5.200000e+01	-8.424662e-02	-2.612892e-02	3.520755e-02	-1.860777e-04	-2.078562e-04	1.329764e-05	-1.544161e-04	-5.349072e-02	7.399870e-02	-1.195275e-04	-3.185666e-05	-2.188592e-03	-1.625903e-03	-1.258547e-03	1.525065e+02	1.242790e+02	
5.300000e+01	-8.374643e-02	-2.451149e-02	3.451827e-02	-1.670451e-04	-2.362895e-04	-3.068633e-07	-1.142225e-04	-5.292179e-02	7.351367e-02	-1.156104e-04	-4.345482e-05	-2.518026e-03	-1.217216e-03	-1.232006e-03	1.531824e+02	1.243303e+02	
5.400000e+01	-8.309119e-02	-2.242724e-02	3.361449e-02	-7.656756e-05	-3.458384e-04	-6.237031e-05	8.766353e-06	-5.251826e-02	7.263547e-02	-1.785042e-04	-1.316636e-04	-3.742993e-03	9.487784e-05	-1.931943e-03	1.540652e+02	1.246390e+02	
5.500000e+01	-8.214949e-02	-2.047834e-02	3.214939e-02	-3.681205e-05	-3.781419e-04	-7.985726e-05	5.856846e-05	-5.231416e-02	7.103063e-02	-1.938115e-04	-1.565258e-04	-4.175501e-03	6.467219e-04	-2.140097e-03	1.551087e+02	1.252862e+02	
5.600000e+01	-8.081633e-02	-1.870335e-02	3.023955e-02	-1.047031e-06	-4.039226e-04	-9.308815e-05	1.039469e-04	-5.217454e-02	6.872792e-02	-2.089884e-04	-1.772322e-04	-4.574835e-03	1.177305e-03	-2.367007e-03	1.562523e+02	1.262231e+02	
5.700000e+01	-7.893290e-02	-1.731974e-02	2.796963e-02	2.219676e-05	-4.264582e-04	-1.014403e-04	1.479357e-04	-5.166562e-02	6.590421e-02	-2.173322e-04	-1.899448e-04	-4.986987e-03	1.729955e-03	-2.541475e-03	1.573745e+02	1.271696e+02	
5.800000e+01	-7.635688e-02	-1.617792e-02	2.570175e-02	3.672206e-05	-4.448909e-04	-1.066208e-04	1.876246e-04	-5.021873e-02	6.300025e-02	-2.196811e-04	-1.973084e-04	-5.413965e-03	2.283240e-03	-2.673342e-03	1.583108e+02	1.276707e+02	
5.900000e+01	-7.303469e-02	-1.485852e-02	2.375743e-02	5.519818e-05	-4.546985e-04	-1.104614e-04	2.162082e-04	-4.752564e-02	6.033072e-02	-2.231495e-04	-2.053824e-04	-5.812649e-03	2.763903e-03	-2.852637e-03	1.590097e+02	1.274123e+02	
6.000000e+01	-6.903137e-02	-1.358167e-02	2.184611e-02	7.522540e-05	-4.537407e-04	-1.130782e-04	2.344329e-04	-4.380961e-02	5.764808e-02	-2.281043e-04	-2.143678e-04	-6.159225e-03	3.182269e-03	-3.096363e-03	1.595627e+02	1.264903e+02	
6.100000e+01	-6.452023e-02	-1.288288e-02	1.935048e-02	7.713721e-05	-4.455261e-04	-1.120935e-04	2.513499e-04	-3.991388e-02	5.426033e-02	-2.218821e-04	-2.136884e-04	-6.496407e-03	3.665041e-03	-3.235357e-03	1.601859e+02	1.255915e+02	
6.200000e+01	-5.968544e-02	-1.140917e-02	1.698192e-02	8.168063e-05	-4.260339e-04	-1.046786e-04	2.553362e-04	-3.633936e-02	5.030097e-02	-2.101876e-04	-2.038069e-04	-6.752322e-03	4.046890e-03	-3.331318e-03	1.610797e+02	1.251664e+02	
6.300000e+01	-5.471073e-02	-9.207643e-03	1.481712e-02	9.467327e-05	-3.934548e-04	-9.185725e-05	2.441089e-04	-3.331972e-02	4.585420e-02	-1.989109e-04	-1.891289e-04	-6.851669e-03	4.250942e-03	-3.463858e-03	1.623147e+02	1.254670e+02	
6.400000e+01	-4.978059e-02	-7.003983e-03	1.254773e-02	1.087579e-04	-3.491114e-04	-7.653253e-05	2.224839e-04	-3.089079e-02	4.100380e-02	-1.884134e-04	-1.721779e-04	-6.737885e-03	4.293961e-03	-3.636397e-03	1.638982e+02	1.265979e+02	
6.500000e+01	-4.511031e-02	-5.123197e-03	1.021748e-02	1.203398e-04	-2.982198e-04	-6.112591e-05	1.951840e-04	-2.892645e-02	3.609152e-02	-1.787657e-04	-1.549571e-04	-6.408391e-03	4.194274e-03	-3.841464e-03	1.657818e+02	1.284328e+02	
6.600000e+01	-4.084600e-02	-3.657704e-03	7.974444e-03	1.257144e-04	-2.453489e-04	-4.651413e-05	1.649915e-04	-2.729588e-02	3.141532e-02	-1.675281e-04	-1.366852e-04	-5.872739e-03	3.949283e-03	-4.010001e-03	1.678777e+02	1.307956e+02	
6.700000e+01	-3.712791e-02	-2.671390e-03	5.943769e-03	1.227802e-04	-1.952935e-04	-3.370732e-05	1.353836e-04	-2.590462e-02	2.725364e-02	-1.534076e-04	-1.176342e-04	-5.180825e-03	3.591511e-03	-4.069660e-03	1.700452e+02	1.334096e+02	
6.800000e+01	-3.408103e-02	-2.210850e-03	4.176531e-03	1.122985e-04	-1.516273e-04	-2.359798e-05	1.095099e-04	-2.475453e-02	2.379440e-02	-1.377117e-04	-9.965164e-05	-4.406861e-03	3.182771e-03	-4.002422e-03	1.721059e+02	1.360100e+02	
6.900000e+01	-3.175461e-02	-2.217063e-03	2.703616e-03	9.809010e-05	-1.162959e-04	-1.647110e-05	8.904655e-05	-2.387530e-02	2.111006e-02	-1.235982e-04	-8.505419e-05	-3.640332e-03	2.787363e-03	-3.868910e-03	1.737167e+02	1.383616e+02	
7.000000e+01	-3.012213e-02	-2.491846e-03	1.545594e-03	8.343459e-05	-8.896674e-05	-1.164086e-05	7.339668e-05	-2.330126e-02	1.915158e-02	-1.121096e-04	-7.388966e-05	-2.939639e-03	2.425173e-03	-3.704324e-03	1.744401e+02	1.403468e+02	
7.100000e+01	-2.906793e-02	-2.931139e-03	6.419736e-04	6.861311e-05	-6.757997e-05	-8.329940e-06	6.111064e-05	-2.301877e-02	1.776211e-02	-1.023550e-04	-6.493625e-05	-2.312609e-03	2.091227e-03	-3.502621e-03	1.741064e+02	1.419721e+02	
7.200000e+01	-2.846746e-02	-3.476987e-03	-8.202889e-05	5.400704e-05	-5.067068e-05	-6.033243e-06	5.149778e-05	-2.297761e-02	1.680573e-02	-9.403959e-05	-5.764594e-05	-1.766813e-03	1.795653e-03	-3.279025e-03	1.730346e+02	1.432445e+02	
7.300000e+01	-2.818872e-02	-4.151665e-03	-7.232107e-04	3.934362e-05	-3.683426e-05	-4.415589e-06	4.412148e-05	-2.311284e-02	1.615313e-02	-8.708668e-05	-5.174625e-05	-1.292340e-03	1.548014e-03	-3.055460e-03	1.714974e+02	1.441860e+02	
7.400000e+01	-2.813864e-02	-4.879965e-03	-1.280953e-03	2.563541e-05	-2.583732e-05	-3.313859e-06	3.871970e-05	-2.335574e-02	1.574590e-02	-8.161376e-05	-4.719926e-05	-9.038019e-04	1.354434e-03	-2.854889e-03	1.698349e+02	1.447852e+02	
7.500000e+01	-2.823010e-02	-5.637507e-03	-1.756852e-03	1.238810e-05	-1.703929e-05	-2.631767e-06	3.466648e-05	-2.365124e-02	1.551270e-02	-7.685982e-05	-4.343123e-05	-5.907997e-04	1.201984e-03	-2.664944e-03	1.681858e+02	1.450903e+02	
7.600000e+01	-2.838039e-02	-6.389744e-03	-2.160035e-03	-6.203601e-07	-1.051225e-05	-2.414011e-06	3.214473e-05	-2.394059e-02	1.539353e-02	-7.225905e-05	-4.014593e-05	-3.603677e-04	1.101945e-03	-2.477094e-03	1.666310e+02	1.451551e+02	
7.700000e+01	-2.849298e-02	-7.132007e-03	-2.613044e-03	-1.420032e-05	-5.160203e-06	-2.593925e-06	3.130599e-05	-2.420162e-02	1.526302e-02	-6.701443e-05	-3.683880e-05	-1.749932e-04	1.061651e-03	-2.272598e-03	1.650733e+02	1.451577e+02	
7.800000e+01	-2.848519e-02	-7.841642e-03	-3.201980e-03	-2.858180e-05	1.740355e-07	-3.164930e-06	3.186127e-05	-2.440391e-02	1.503688e-02	-6.066495e-05	-3.323357e-05	5.856262e-06	1.072126e-03	-2.041365e-03	1.634400e+02	1.452039e+02	
7.900000e+01	-2.832767e-02	-8.524596e-03	-3.803937e-03	-4.367553e-05	6.032315e-06	-4.049607e-06	3.204263e-05	-2.447181e-02	1.476676e-02	-5.330329e-05	-2.923101e-05	2.022496e-04	1.074315e-03	-1.787136e-03	1.617615e+02	1.451333e+02	
8.000000e+01	-2.804335e-02	-9.217225e-03	-4.236587e-03	-5.957188e-05	1.165485e-05	-5.168999e-06	3.078868e-05	-2.436902e-02	1.450962e-02	-4.520206e-05	-2.477893e-05	3.908174e-04	1.032424e-03	-1.515742e-03	1.601132e+02	1.448012e+02	
8.100000e+01	-2.770017e-02	-9.864859e-03	-4.457875e-03	-7.501779e-05	1.556544e-05	-6.529528e-06	2.915203e-05	-2.416070e-02	1.426298e-02	-3.705957e-05	-2.031385e-05	5.233783e-04	9.802188e-04	-1.246105e-03	1.586543e+02	1.443300e+02	
8.200000e+01	-2.731038e-02	-1.047200e-02	-4.594681e-03	-9.014781e-05	1.854634e-05	-8.054926e-06	2.759492e-05	-2.393153e-02	1.393735e-02	-2.880568e-05	-1.579615e-05	6.263973e-04	9.320103e-04	-9.729035e-04	1.572796e+02	1.439283e+02	
8.300000e+01	-2.687614e-02	-1.103062e-02	-4.729338e-03	-1.046415e-04	2.132474e-05	-9.661341e-06	2.619965e-05	-2.371270e-02	1.350562e-02	-2.063365e-05	-1.139745e-05	7.244902e-04	8.901109e-04	-7.010110e-04	1.559366e+02	1.436701e+02	
8.400000e+01	-2.636820e-02	-1.157135e-02	-4.935820e-03	-1.191524e-04	2.556113e-05	-1.108676e-05	2.404918e-05	-2.349644e-02	1.294455e-02	-1.219170e-05	-6.750884e-06	8.749192e-04	8.231674e-04	-4.173037e-04	1.544946e+02	1.435378e+02	
